##TITLE= 
##JCAMP-DX= 5.01  $$ datafile exported by Spectragryph v.1.2.16.1
##LONGDATE= 2026/2/13 8:46:26
##OWNER= unknown
##ORIGIN= unknown
##DATA TYPE= INFRARED SPECTRUM
##DATA CLASS= XYDATA
##SPECTROMETER/DATASYSTEM= unknown
##XUNITS= 1/CM
##YUNITS= TRANSMITTANCE
##XLABEL= Wavenumbers [1/cm]
##FIRSTX= 4000.3653
##LASTX= 650.42045
##FIRSTY= 81.743680
##DELTAX= -0.93183446
##MINY= 0.000010
##MAXY= 102.415000
##XFACTOR= 1.000000
##YFACTOR= 1.000000
##NPOINTS= 3596
##XYDATA= (X++(Y..Y))
4000.365 0.817437 0.821870 0.828683 0.831927 0.828177 0.834091 0.843553 0.847163 0.857485 0.859943
3991.047 0.852512 0.853457 0.859569 0.866585 0.874521 0.878075 0.877154 0.880960 0.882848 0.885883
3981.729 0.892223 0.898197 0.897599 0.899734 0.898276 0.900774 0.907218 0.908278 0.909155 0.904863
3972.410 0.905726 0.910294 0.905398 0.905411 0.901383 0.894880 0.898730 0.898444 0.896192 0.899797
3963.092 0.893771 0.884798 0.886939 0.891399 0.880208 0.871865 0.883471 0.885623 0.877931 0.873184
3953.774 0.863589 0.854827 0.852838 0.856897 0.861050 0.860882 0.850255 0.838137 0.832628 0.840590
3944.455 0.846506 0.840193 0.834540 0.832322 0.825219 0.815572 0.810527 0.814079 0.821340 0.822532
3935.137 0.819369 0.822357 0.819676 0.822378 0.818814 0.811602 0.819527 0.828038 0.822087 0.820179
3925.819 0.831330 0.843006 0.838050 0.829855 0.832193 0.828243 0.828802 0.835634 0.829149 0.833105
3916.500 0.844972 0.850496 0.854886 0.854076 0.851795 0.856158 0.865034 0.866889 0.869978 0.881473
3907.182 0.892466 0.896491 0.892219 0.890293 0.894181 0.891183 0.876826 0.878228 0.894584 0.900944
3897.864 0.908212 0.914994 0.912283 0.911941 0.912842 0.910917 0.902774 0.904909 0.911997 0.912457
3888.545 0.900162 0.892641 0.894853 0.896808 0.898692 0.903937 0.907179 0.900533 0.894436 0.892694
3879.227 0.888869 0.885623 0.889055 0.886880 0.870162 0.863149 0.869267 0.866563 0.856027 0.848352
3869.909 0.846692 0.860657 0.855812 0.841643 0.841415 0.843232 0.839154 0.834400 0.833331 0.833047
3860.590 0.832372 0.832593 0.829123 0.827415 0.832380 0.840752 0.831846 0.832938 0.831864 0.821278
3851.272 0.821021 0.825014 0.821320 0.816545 0.814178 0.821308 0.831951 0.834627 0.830799 0.833423
3841.953 0.833069 0.838870 0.841584 0.835150 0.836802 0.840676 0.847316 0.856499 0.856922 0.848722
3832.635 0.843030 0.856586 0.869311 0.867009 0.866340 0.873285 0.885590 0.883979 0.887564 0.896241
3823.317 0.891181 0.890952 0.898751 0.908229 0.911890 0.907878 0.906257 0.912275 0.914214 0.917261
3813.998 0.912524 0.909193 0.908783 0.912510 0.918228 0.914557 0.911520 0.909750 0.907849 0.909052
3804.680 0.909756 0.916209 0.908610 0.895283 0.894883 0.897550 0.900536 0.894447 0.881607 0.874814
3795.362 0.870834 0.866637 0.865548 0.867027 0.866025 0.867520 0.861655 0.855796 0.854484 0.859489
3786.043 0.854981 0.842644 0.841785 0.840478 0.836579 0.840811 0.839737 0.834546 0.832024 0.837177
3776.725 0.836082 0.831663 0.827119 0.824344 0.824027 0.821076 0.821798 0.819984 0.813563 0.816116
3767.407 0.825125 0.832203 0.831123 0.829937 0.827056 0.833464 0.835723 0.832434 0.842128 0.848280
3758.088 0.844718 0.849587 0.861292 0.871335 0.877846 0.879872 0.871266 0.871227 0.869782 0.870602
3748.770 0.883321 0.901449 0.906188 0.897356 0.889632 0.890557 0.898979 0.905644 0.905705 0.910262
3739.452 0.921848 0.925642 0.918066 0.911793 0.913956 0.912830 0.903858 0.908921 0.923421 0.922459
3730.133 0.916688 0.927214 0.933198 0.921691 0.918440 0.918484 0.917243 0.919359 0.912232 0.905858
3720.815 0.897335 0.888735 0.892811 0.894375 0.893152 0.894976 0.886729 0.879068 0.882212 0.886849
3711.497 0.882648 0.878940 0.873842 0.871816 0.866172 0.852372 0.845952 0.848906 0.851593 0.848125
3702.178 0.838399 0.833341 0.833380 0.831906 0.819672 0.818518 0.828337 0.829537 0.829520 0.831694
3692.860 0.842135 0.843719 0.829945 0.827085 0.829787 0.832462 0.837549 0.836481 0.833553 0.829388
3683.542 0.826870 0.828005 0.835468 0.840005 0.840317 0.846095 0.857809 0.868710 0.871942 0.866956
3674.223 0.858328 0.868147 0.874172 0.864922 0.862198 0.874134 0.880578 0.885187 0.880225 0.885081
3664.905 0.896952 0.891071 0.883545 0.887134 0.888085 0.890411 0.901071 0.911167 0.904884 0.902815
3655.587 0.904465 0.902730 0.908796 0.913009 0.905162 0.896754 0.899721 0.903870 0.896544 0.887279
3646.268 0.881959 0.888679 0.897896 0.897277 0.895989 0.892002 0.891688 0.893343 0.896655 0.895563
3636.950 0.890846 0.888985 0.890566 0.891426 0.885509 0.879343 0.879213 0.878783 0.862778 0.849726
3627.632 0.855451 0.862068 0.858360 0.849831 0.841387 0.839923 0.837082 0.833795 0.829439 0.825342
3618.313 0.823527 0.822411 0.824014 0.821259 0.819322 0.824406 0.825994 0.827226 0.830224 0.836714
3608.995 0.837139 0.832645 0.833244 0.831702 0.833807 0.837713 0.838353 0.841724 0.844548 0.849148
3599.677 0.850755 0.849478 0.855409 0.863352 0.865137 0.865019 0.867830 0.871216 0.867203 0.873496
3590.358 0.882974 0.885101 0.883087 0.889375 0.896429 0.896352 0.901094 0.907708 0.907149 0.909625
3581.040 0.911137 0.918941 0.925858 0.924964 0.923637 0.925704 0.932593 0.939500 0.940471 0.940705
3571.721 0.941798 0.941672 0.940790 0.934709 0.934521 0.937233 0.936491 0.937287 0.941648 0.937845
3562.403 0.931317 0.924477 0.918118 0.917268 0.923097 0.915791 0.909121 0.912501 0.910421 0.899393
3553.085 0.892261 0.888567 0.880997 0.878732 0.884180 0.885523 0.877740 0.868165 0.863029 0.862024
3543.766 0.859242 0.855034 0.857038 0.851696 0.844573 0.847297 0.847090 0.842795 0.845061 0.847782
3534.448 0.838649 0.834806 0.834590 0.833398 0.833795 0.837490 0.839263 0.838516 0.834662 0.834554
3525.130 0.837011 0.840579 0.845881 0.849445 0.845039 0.845039 0.851828 0.855335 0.852418 0.853208
3515.811 0.862174 0.871518 0.874407 0.873453 0.874821 0.878971 0.885180 0.886996 0.892315 0.900106
3506.493 0.903734 0.905466 0.907913 0.908651 0.915058 0.923452 0.924699 0.917715 0.917576 0.921490
3497.175 0.926825 0.928184 0.926647 0.929372 0.929642 0.933134 0.930784 0.924206 0.933751 0.943414
3487.856 0.942850 0.936898 0.932775 0.927023 0.922020 0.922190 0.922069 0.918702 0.914166 0.914622
3478.538 0.915364 0.917202 0.914758 0.909512 0.907608 0.899037 0.893835 0.887129 0.877989 0.878303
3469.220 0.876257 0.873975 0.873274 0.871154 0.870356 0.861739 0.854990 0.855172 0.851797 0.850585
3459.901 0.849672 0.851469 0.851499 0.844547 0.839187 0.836722 0.839655 0.840399 0.840117 0.841855
3450.583 0.836857 0.825931 0.826704 0.836820 0.840819 0.839552 0.839608 0.840901 0.837884 0.832762
3441.265 0.839497 0.853615 0.852124 0.848154 0.851545 0.854651 0.859748 0.870934 0.874686 0.873720
3431.946 0.876954 0.876260 0.871194 0.881417 0.895985 0.896585 0.896375 0.901243 0.906109 0.908803
3422.628 0.920195 0.933868 0.932499 0.925109 0.929267 0.932844 0.936229 0.941667 0.943967 0.946089
3413.310 0.938497 0.936757 0.944386 0.942907 0.938521 0.941764 0.947898 0.949231 0.942601 0.939853
3403.991 0.938880 0.939691 0.937798 0.934678 0.931505 0.922770 0.912411 0.903268 0.910034 0.913950
3394.673 0.912913 0.907817 0.901017 0.902716 0.895497 0.886972 0.889147 0.886909 0.878421 0.874399
3385.355 0.876910 0.875838 0.865331 0.855854 0.856859 0.860940 0.856405 0.854075 0.856000 0.852751
3376.036 0.847930 0.844737 0.842049 0.841195 0.843291 0.838875 0.836047 0.839574 0.842427 0.845987
3366.718 0.843353 0.849449 0.853550 0.846812 0.844479 0.845023 0.850608 0.856084 0.856683 0.864371
3357.400 0.867188 0.869551 0.878203 0.879763 0.876510 0.878426 0.889949 0.896498 0.895187 0.894715
3348.081 0.899539 0.913293 0.912510 0.912953 0.921573 0.924408 0.925117 0.923999 0.926776 0.934975
3338.763 0.941826 0.944064 0.942463 0.942940 0.947153 0.946807 0.946566 0.951770 0.951996 0.951844
3329.445 0.950828 0.946051 0.942692 0.946965 0.949880 0.950931 0.947905 0.936490 0.935078 0.938963
3320.126 0.930046 0.922257 0.922693 0.926043 0.927755 0.914360 0.902249 0.901673 0.900139 0.895266
3310.808 0.892827 0.891156 0.885826 0.879397 0.872154 0.869758 0.870111 0.869738 0.863744 0.854806
3301.489 0.855626 0.862514 0.858011 0.853401 0.852157 0.846048 0.840773 0.837379 0.841108 0.845470
3292.171 0.845581 0.844237 0.841935 0.838469 0.837718 0.839511 0.842551 0.845987 0.849380 0.852934
3282.853 0.854022 0.854216 0.856462 0.862536 0.865966 0.866212 0.863761 0.866232 0.876534 0.885020
3273.534 0.885444 0.877199 0.884684 0.898692 0.900449 0.902307 0.905419 0.911156 0.911641 0.907953
3264.216 0.908992 0.913009 0.920484 0.934408 0.940377 0.932554 0.933173 0.939546 0.941636 0.936399
3254.898 0.935964 0.944933 0.943434 0.943232 0.945300 0.940494 0.939733 0.941656 0.945021 0.946036
3245.579 0.935242 0.927392 0.929987 0.930658 0.927628 0.921999 0.919125 0.920899 0.917376 0.908161
3236.261 0.906085 0.905440 0.900240 0.896824 0.893482 0.886492 0.883728 0.881149 0.874723 0.872049
3226.943 0.868018 0.860449 0.861409 0.864822 0.854679 0.846313 0.850344 0.851057 0.849106 0.846588
3217.624 0.842916 0.833080 0.825281 0.827276 0.826681 0.827179 0.830762 0.831216 0.829756 0.828795
3208.306 0.826065 0.826983 0.828158 0.827391 0.826981 0.832238 0.833286 0.833066 0.840325 0.844726
3198.988 0.844462 0.849980 0.857656 0.856799 0.854964 0.858346 0.870916 0.877877 0.879556 0.883461
3189.669 0.887487 0.891723 0.897800 0.901160 0.897779 0.899358 0.902223 0.902371 0.907519 0.915640
3180.351 0.918700 0.920757 0.923437 0.918392 0.919939 0.926263 0.925211 0.924960 0.920890 0.917918
3171.033 0.917226 0.914093 0.909055 0.897982 0.892818 0.887661 0.877630 0.870435 0.864299 0.857044
3161.714 0.857547 0.857235 0.854565 0.854830 0.855861 0.854571 0.849683 0.844599 0.841219 0.839729
3152.396 0.835646 0.832798 0.829809 0.827114 0.825115 0.818907 0.815593 0.814949 0.811111 0.807179
3143.078 0.806691 0.803142 0.797818 0.791450 0.793211 0.802886 0.803919 0.800359 0.797987 0.795003
3133.759 0.795783 0.802684 0.804524 0.802721 0.795105 0.797065 0.804169 0.805244 0.808483 0.809232
3124.441 0.803048 0.805367 0.809022 0.808709 0.805839 0.804379 0.802250 0.796896 0.788912 0.783403
3115.123 0.774819 0.759953 0.741827 0.721310 0.696055 0.674745 0.652674 0.624655 0.595148 0.570476
3105.804 0.551763 0.536431 0.527872 0.525296 0.525412 0.529164 0.536861 0.547550 0.552381 0.550741
3096.486 0.549749 0.545802 0.535197 0.517718 0.489003 0.456947 0.420133 0.376359 0.331403 0.289565
3087.168 0.248853 0.208260 0.177115 0.157389 0.146421 0.144272 0.150469 0.164926 0.183477 0.206324
3077.849 0.228212 0.247866 0.260981 0.270184 0.278292 0.278915 0.273758 0.264318 0.244165 0.220633
3068.531 0.198031 0.174404 0.148760 0.126694 0.106131 0.088770 0.073616 0.060891 0.055885 0.057385
3059.213 0.062359 0.076419 0.091231 0.110124 0.136421 0.162342 0.182535 0.201938 0.222039 0.240893
3049.894 0.258078 0.278547 0.292987 0.299153 0.304430 0.309081 0.303967 0.291215 0.276865 0.257212
3040.576 0.237078 0.219946 0.197011 0.170059 0.142329 0.116049 0.087683 0.061084 0.042205 0.027042
3031.257 0.014721 0.002794 0.000000 0.000000 0.000000 0.000000 0.000000 0.000000 0.000000 0.011178
3021.939 0.026377 0.046138 0.069725 0.101601 0.140385 0.182932 0.220145 0.254007 0.293519 0.327177
3012.621 0.351927 0.377501 0.402255 0.420533 0.424480 0.419221 0.407608 0.391767 0.373824 0.358105
3003.302 0.343340 0.334080 0.333408 0.343137 0.362530 0.394124 0.433143 0.470838 0.510665 0.548962
2993.984 0.579905 0.605426 0.626527 0.644196 0.655963 0.662430 0.667510 0.668794 0.665750 0.665608
2984.666 0.664495 0.657385 0.652343 0.647899 0.639737 0.633294 0.624802 0.615436 0.609208 0.609543
2975.347 0.610341 0.604409 0.595087 0.594053 0.595001 0.589775 0.583810 0.578991 0.572890 0.565494
2966.029 0.556748 0.547782 0.534721 0.520853 0.507591 0.496477 0.485219 0.466102 0.445506 0.427520
2956.711 0.408936 0.388050 0.366586 0.347184 0.325049 0.300380 0.275970 0.251201 0.227449 0.203029
2947.392 0.180205 0.160308 0.137080 0.115562 0.099788 0.087627 0.073861 0.059352 0.047194 0.037523
2938.074 0.029063 0.022600 0.014784 0.009534 0.006279 0.003447 0.001081 0.000000 0.000000 0.000000
2928.756 0.000000 0.000000 0.000000 0.000000 0.000000 0.000000 0.000000 0.000000 0.000000 0.000000
2919.437 0.000000 0.000000 0.000000 0.000000 0.000000 0.002957 0.003074 0.004396 0.006839 0.010598
2910.119 0.016408 0.021754 0.024492 0.031018 0.039714 0.045933 0.052121 0.061951 0.072603 0.084644
2900.801 0.094354 0.105426 0.120667 0.136336 0.149787 0.162839 0.177420 0.192198 0.205504 0.217725
2891.482 0.228517 0.239224 0.249902 0.260538 0.272548 0.281977 0.289373 0.299970 0.309656 0.317585
2882.164 0.328180 0.340542 0.352289 0.362494 0.371189 0.380342 0.389497 0.395846 0.401701 0.406701
2872.846 0.410554 0.412852 0.412409 0.412438 0.412291 0.407287 0.396517 0.387874 0.379445 0.364627
2863.527 0.346730 0.330780 0.313458 0.293301 0.274082 0.255247 0.237753 0.220747 0.201108 0.186135
2854.209 0.174278 0.165943 0.159288 0.153972 0.152436 0.152789 0.154049 0.159760 0.169957 0.186521
2844.891 0.206889 0.229554 0.259898 0.300514 0.342978 0.384091 0.425788 0.468487 0.511601 0.553852
2835.572 0.592597 0.628392 0.661041 0.687263 0.709807 0.729466 0.745684 0.760163 0.772784 0.784145
2826.254 0.793274 0.800514 0.807226 0.812598 0.816548 0.819974 0.819825 0.817967 0.818854 0.820625
2816.936 0.819970 0.819742 0.818181 0.816179 0.817925 0.816543 0.812577 0.806400 0.800330 0.798224
2807.617 0.797132 0.793719 0.791097 0.789932 0.789272 0.788942 0.786412 0.782661 0.782211 0.782782
2798.299 0.779835 0.777235 0.776758 0.775993 0.775276 0.773790 0.773205 0.773879 0.773733 0.771477
2788.981 0.769664 0.771537 0.772083 0.769947 0.769014 0.768561 0.770019 0.771116 0.771341 0.774495
2779.662 0.778935 0.783062 0.787702 0.790282 0.791336 0.795858 0.804156 0.811020 0.815936 0.817961
2770.344 0.820556 0.827267 0.833863 0.839950 0.847651 0.854084 0.858024 0.861297 0.865997 0.870599
2761.026 0.875287 0.880378 0.882846 0.885764 0.890604 0.892849 0.892862 0.897045 0.902933 0.904020
2751.707 0.902808 0.903561 0.905544 0.909595 0.911287 0.906197 0.905133 0.907390 0.906173 0.902151
2742.389 0.898302 0.895632 0.891298 0.888776 0.886553 0.881242 0.874911 0.868443 0.864607 0.861774
2733.070 0.857451 0.852941 0.847698 0.841017 0.836689 0.831648 0.824380 0.822045 0.820176 0.815263
2723.752 0.810674 0.807015 0.804786 0.803254 0.802635 0.801141 0.798081 0.793936 0.789736 0.789697
2714.434 0.790213 0.788100 0.787546 0.786634 0.786290 0.788029 0.790047 0.790954 0.790160 0.789778
2705.115 0.790777 0.791667 0.792273 0.796169 0.804005 0.807272 0.807712 0.809938 0.811853 0.814771
2695.797 0.817576 0.821847 0.826598 0.830467 0.833851 0.839221 0.845648 0.849328 0.851300 0.853719
2686.479 0.857973 0.861580 0.866136 0.871042 0.873952 0.875495 0.879737 0.884836 0.885538 0.887395
2677.160 0.891576 0.891770 0.891561 0.896606 0.899943 0.896798 0.895980 0.897560 0.896854 0.897716
2667.842 0.898746 0.895482 0.890735 0.889841 0.891364 0.889765 0.884084 0.879341 0.879930 0.878838
2658.524 0.873863 0.868696 0.863919 0.859373 0.853738 0.847243 0.843134 0.840248 0.836260 0.832800
2649.205 0.829446 0.825726 0.822355 0.819529 0.815427 0.809428 0.805485 0.803814 0.800679 0.797493
2639.887 0.792856 0.789259 0.788636 0.784955 0.781875 0.779996 0.776476 0.774039 0.771901 0.772989
2630.569 0.776454 0.776452 0.775850 0.779571 0.784680 0.787367 0.790237 0.793997 0.798154 0.804616
2621.250 0.810181 0.812397 0.816979 0.822535 0.824274 0.826585 0.829837 0.833867 0.839404 0.844056
2611.932 0.845561 0.845272 0.846663 0.849633 0.850943 0.851116 0.854285 0.857920 0.860750 0.864347
2602.614 0.867209 0.870281 0.873338 0.876697 0.881541 0.886376 0.890213 0.893783 0.899706 0.904217
2593.295 0.907485 0.908539 0.907207 0.905883 0.902714 0.900088 0.897765 0.895909 0.895227 0.892176
2583.977 0.887244 0.881901 0.877241 0.874873 0.874190 0.871912 0.869232 0.869660 0.867648 0.862949
2574.659 0.860328 0.857239 0.854467 0.850634 0.846392 0.844320 0.839240 0.832804 0.830925 0.827921
2565.340 0.821453 0.817054 0.816066 0.814741 0.811230 0.807040 0.803197 0.801687 0.801400 0.799330
2556.022 0.796018 0.795954 0.798188 0.797766 0.797238 0.798081 0.797838 0.796681 0.795414 0.795239
2546.704 0.797635 0.799949 0.802291 0.804832 0.806048 0.807990 0.812340 0.818578 0.823538 0.826583
2537.385 0.830058 0.833515 0.836500 0.840120 0.844155 0.846822 0.850394 0.854012 0.856396 0.861526
2528.067 0.868390 0.872131 0.873861 0.878173 0.882345 0.885158 0.890557 0.894907 0.896712 0.897984
2518.749 0.899033 0.900765 0.902804 0.905205 0.907240 0.905894 0.904786 0.906159 0.906965 0.904767
2509.430 0.903006 0.901919 0.900662 0.900697 0.900172 0.898318 0.895654 0.892502 0.889684 0.887551
2500.112 0.886044 0.884262 0.881348 0.878296 0.873445 0.866514 0.863815 0.861962 0.857172 0.853241
2490.794 0.848976 0.843241 0.838989 0.836784 0.834254 0.830674 0.825060 0.821622 0.820829 0.816876
2481.475 0.814382 0.814878 0.814586 0.813316 0.810963 0.809241 0.808738 0.807652 0.805842 0.805461
2472.157 0.807661 0.807760 0.808316 0.812727 0.815566 0.815929 0.816776 0.817137 0.817567 0.820589
2462.838 0.824638 0.828720 0.832590 0.836919 0.842927 0.848022 0.850138 0.851481 0.855470 0.861405
2453.520 0.866453 0.869664 0.872797 0.874577 0.877758 0.882953 0.888625 0.893686 0.897343 0.902213
2444.202 0.906118 0.909274 0.914505 0.917539 0.919003 0.922635 0.926440 0.929712 0.933064 0.935275
2434.883 0.936752 0.938287 0.939632 0.941201 0.942334 0.942097 0.940520 0.937190 0.933885 0.933124
2425.565 0.931041 0.926290 0.923871 0.923632 0.923015 0.921523 0.918020 0.911538 0.906251 0.901241
2416.247 0.895400 0.890165 0.885820 0.881074 0.875767 0.871765 0.867175 0.862743 0.859011 0.853028
2406.928 0.847440 0.844429 0.843019 0.839806 0.835078 0.832667 0.829969 0.826025 0.822666 0.818440
2397.610 0.816528 0.817566 0.817370 0.816020 0.815073 0.814905 0.813675 0.812810 0.815440 0.817354
2388.292 0.818151 0.819543 0.819241 0.820659 0.825772 0.831328 0.838432 0.847686 0.853239 0.858296
2378.973 0.868386 0.877764 0.886655 0.896888 0.906211 0.914305 0.924039 0.932140 0.940856 0.954140
2369.655 0.964859 0.974403 0.984869 0.993102 1.000059 1.008461 1.014044 1.015194 1.017841 1.022192
2360.337 1.022049 1.020411 1.022087 1.024150 1.023060 1.020463 1.011357 0.999526 0.991529 0.986402
2351.018 0.979445 0.970272 0.968026 0.973174 0.975268 0.974053 0.973168 0.972848 0.966237 0.956714
2341.700 0.951458 0.945180 0.934096 0.927986 0.922078 0.913741 0.910570 0.905397 0.900869 0.905429
2332.382 0.910383 0.911482 0.909589 0.906294 0.901433 0.893811 0.887535 0.887051 0.890454 0.887947
2323.063 0.882424 0.875511 0.865460 0.856990 0.851999 0.847411 0.841538 0.833342 0.830090 0.829445
2313.745 0.824070 0.817615 0.815668 0.815369 0.814315 0.815868 0.819233 0.820764 0.821223 0.824370
2304.427 0.829299 0.832898 0.835731 0.838059 0.840019 0.842755 0.844523 0.846564 0.851631 0.856242
2295.108 0.857769 0.859734 0.863833 0.869820 0.876188 0.879480 0.882554 0.887624 0.891216 0.896263
2285.790 0.903671 0.908602 0.912906 0.919380 0.923605 0.926832 0.931211 0.934152 0.936438 0.938070
2276.472 0.940691 0.943230 0.944201 0.944566 0.944685 0.946218 0.945364 0.942876 0.941841 0.941257
2267.153 0.939380 0.936493 0.932683 0.929423 0.926691 0.923271 0.918921 0.914587 0.908603 0.902820
2257.835 0.898396 0.895389 0.893039 0.889514 0.884560 0.879313 0.874388 0.870143 0.865963 0.861993
2248.517 0.858028 0.854566 0.851096 0.848568 0.845339 0.840816 0.838403 0.836726 0.833707 0.832247
2239.198 0.830307 0.825981 0.824254 0.824717 0.824000 0.821945 0.820952 0.822888 0.823651 0.821072
2229.880 0.820109 0.822140 0.822479 0.822150 0.824008 0.826562 0.828934 0.831418 0.835208 0.839941
2220.562 0.842601 0.845210 0.847525 0.851484 0.856920 0.860772 0.865393 0.869788 0.873858 0.878757
2211.243 0.883601 0.887487 0.891518 0.896557 0.902805 0.908824 0.913070 0.916657 0.920104 0.924809
2201.925 0.930340 0.932831 0.935539 0.940331 0.943440 0.946796 0.949787 0.950334 0.952016 0.953243
2192.606 0.951296 0.951113 0.951900 0.951923 0.950928 0.948301 0.946671 0.945618 0.942420 0.939427
2183.288 0.937726 0.935037 0.932638 0.930519 0.926950 0.923011 0.918752 0.914487 0.910368 0.906718
2173.970 0.903930 0.898814 0.894666 0.892077 0.887254 0.881735 0.876995 0.870242 0.864087 0.860624
2164.651 0.858573 0.856248 0.851078 0.846855 0.845353 0.842298 0.839109 0.837068 0.834115 0.832028
2155.333 0.831556 0.831237 0.830488 0.829676 0.830248 0.830110 0.830256 0.831009 0.830879 0.832897
2146.015 0.835203 0.836336 0.838458 0.842672 0.846470 0.849196 0.853257 0.855501 0.859220 0.864173
2136.696 0.868045 0.871525 0.874915 0.880923 0.886767 0.890869 0.894308 0.898802 0.904231 0.909049
2127.378 0.913739 0.918189 0.923081 0.929804 0.934705 0.937585 0.941101 0.945232 0.950043 0.954325
2118.060 0.957067 0.959426 0.961516 0.963259 0.962799 0.962969 0.964816 0.966415 0.964958 0.961758
2108.741 0.961889 0.962801 0.962840 0.961528 0.959384 0.957166 0.954469 0.950555 0.946946 0.942952
2099.423 0.939339 0.935182 0.930759 0.925979 0.920720 0.915933 0.911296 0.906711 0.903637 0.898188
2090.105 0.890621 0.884924 0.881517 0.877640 0.872830 0.868964 0.865081 0.860432 0.857934 0.855924
2080.786 0.851290 0.847101 0.845960 0.844132 0.841251 0.839166 0.837363 0.837001 0.837768 0.837524
2071.468 0.836209 0.836024 0.837105 0.836799 0.836802 0.838414 0.840261 0.841530 0.843732 0.846917
2062.150 0.849305 0.851524 0.855681 0.861416 0.864620 0.867693 0.871219 0.876600 0.882876 0.887226
2052.831 0.890273 0.894857 0.900388 0.905872 0.910829 0.914526 0.919909 0.924357 0.927858 0.932519
2043.513 0.938085 0.941937 0.944767 0.948424 0.952682 0.955370 0.957676 0.959835 0.960902 0.962687
2034.195 0.965213 0.964879 0.963681 0.965065 0.966623 0.964971 0.961572 0.960509 0.959787 0.957208
2024.876 0.954051 0.950778 0.948598 0.946214 0.942921 0.938328 0.932591 0.928153 0.923803 0.916881
2015.558 0.909150 0.904907 0.901394 0.896063 0.890614 0.885398 0.880054 0.874696 0.869075 0.863430
2006.240 0.858583 0.855510 0.853796 0.848848 0.842876 0.838334 0.835247 0.832240 0.828658 0.825274
1996.921 0.822195 0.819711 0.818927 0.818074 0.815408 0.810832 0.807788 0.807494 0.805637 0.803726
1987.603 0.802462 0.800705 0.802477 0.805675 0.807395 0.810509 0.814225 0.816254 0.818627 0.823005
1978.285 0.827734 0.830500 0.833316 0.836323 0.836564 0.836625 0.837405 0.835451 0.832548 0.828847
1968.966 0.824708 0.819255 0.810916 0.802807 0.795871 0.788485 0.781735 0.775219 0.769794 0.763173
1959.648 0.758976 0.755790 0.750276 0.745119 0.741774 0.738533 0.733056 0.726322 0.718559 0.710754
1950.330 0.700180 0.687829 0.677447 0.668081 0.658575 0.650054 0.643088 0.638019 0.636603 0.640045
1941.011 0.645294 0.653381 0.664842 0.677762 0.691833 0.706517 0.721882 0.736869 0.749860 0.763329
1931.693 0.774574 0.781896 0.787956 0.793086 0.796294 0.798782 0.801262 0.801715 0.802779 0.805181
1922.374 0.804873 0.803368 0.803095 0.802808 0.803105 0.803184 0.803110 0.802377 0.800577 0.799001
1913.056 0.798397 0.798775 0.799894 0.800542 0.800426 0.800411 0.799414 0.797174 0.798285 0.799120
1903.738 0.797795 0.797138 0.798399 0.797273 0.796001 0.795560 0.793570 0.792193 0.788694 0.784981
1894.419 0.781995 0.777273 0.772990 0.769026 0.766147 0.761545 0.756037 0.751473 0.747478 0.744259
1885.101 0.742085 0.739664 0.738115 0.736934 0.733579 0.730931 0.730103 0.728548 0.726364 0.724829
1875.783 0.723732 0.721649 0.718297 0.715133 0.712701 0.712606 0.714691 0.716083 0.718621 0.724307
1866.464 0.730685 0.738815 0.748981 0.761469 0.773948 0.786187 0.797428 0.808865 0.819852 0.829240
1857.146 0.837916 0.844521 0.848662 0.852553 0.855128 0.855214 0.856707 0.856885 0.855024 0.853713
1847.828 0.852001 0.848895 0.844850 0.839718 0.836282 0.834230 0.831064 0.826223 0.822275 0.819249
1838.509 0.816403 0.812745 0.808811 0.804777 0.800769 0.796114 0.792067 0.789588 0.787744 0.784280
1829.191 0.779165 0.773970 0.770814 0.768467 0.764139 0.757857 0.754388 0.751037 0.746431 0.742575
1819.873 0.740087 0.737022 0.733215 0.730027 0.726471 0.722456 0.719425 0.716327 0.713069 0.709258
1810.554 0.704639 0.699696 0.695346 0.692025 0.688650 0.685644 0.682479 0.682147 0.685143 0.686105
1801.236 0.689179 0.697158 0.706057 0.715419 0.727959 0.743825 0.760387 0.776381 0.793692 0.813556
1791.918 0.829768 0.844601 0.857645 0.867437 0.876460 0.885796 0.891478 0.894608 0.896052 0.896143
1782.599 0.895109 0.893763 0.890041 0.884390 0.879095 0.872764 0.867250 0.861802 0.857086 0.854526
1773.281 0.853988 0.850891 0.846951 0.843462 0.839651 0.836269 0.831388 0.823965 0.816175 0.808814
1763.963 0.801434 0.793662 0.786071 0.777554 0.769562 0.761630 0.754320 0.747129 0.738353 0.729519
1754.644 0.721403 0.716047 0.712323 0.704668 0.696192 0.692235 0.691187 0.689242 0.687119 0.686615
1745.326 0.688311 0.690586 0.694425 0.698643 0.703786 0.709808 0.717024 0.723612 0.731696 0.741566
1736.008 0.751278 0.763266 0.772022 0.778251 0.786020 0.793724 0.801414 0.808653 0.815963 0.824301
1726.689 0.832430 0.838989 0.846968 0.855284 0.859930 0.865982 0.874200 0.882158 0.892042 0.897984
1717.371 0.900306 0.905161 0.909988 0.910902 0.912881 0.915130 0.917452 0.919040 0.919202 0.919328
1708.053 0.919912 0.919771 0.918262 0.915191 0.911822 0.908262 0.907840 0.908784 0.905132 0.896949
1698.734 0.892803 0.889278 0.886912 0.881779 0.872688 0.866334 0.862634 0.856744 0.849809 0.842224
1689.416 0.835431 0.829302 0.822557 0.816572 0.812548 0.806844 0.796675 0.786357 0.779916 0.776813
1680.098 0.771610 0.766489 0.763749 0.761481 0.758595 0.753800 0.749206 0.747417 0.745452 0.744801
1670.779 0.743626 0.741672 0.741053 0.741631 0.741399 0.741739 0.744685 0.748982 0.753495 0.757187
1661.461 0.761750 0.768544 0.775968 0.782858 0.789514 0.796140 0.804302 0.816349 0.829642 0.836853
1652.142 0.836415 0.837695 0.843726 0.852270 0.861706 0.868991 0.875831 0.880593 0.883611 0.889062
1642.824 0.893675 0.897183 0.902312 0.908130 0.912410 0.917327 0.920054 0.921971 0.920434 0.915831
1633.506 0.914159 0.911378 0.908456 0.906411 0.903912 0.899464 0.891335 0.882712 0.876358 0.871570
1624.187 0.865332 0.853245 0.843006 0.833920 0.821605 0.809920 0.800968 0.788696 0.768294 0.748652
1614.869 0.729851 0.708249 0.683765 0.654270 0.617579 0.573004 0.518854 0.454160 0.381393 0.306000
1605.551 0.235918 0.176750 0.130997 0.100360 0.085702 0.087992 0.108816 0.149301 0.203714 0.265464
1596.232 0.326857 0.382582 0.430063 0.468878 0.502159 0.529614 0.552277 0.568343 0.572604 0.563667
1586.914 0.538626 0.497549 0.451066 0.415131 0.405291 0.427557 0.476088 0.536480 0.591862 0.633848
1577.596 0.662316 0.689843 0.713203 0.729507 0.743593 0.757199 0.770997 0.784727 0.801165 0.811662
1568.277 0.817663 0.824405 0.833161 0.842658 0.848304 0.853583 0.861351 0.869636 0.881673 0.887876
1558.959 0.888388 0.879017 0.871142 0.868114 0.867588 0.864512 0.856179 0.848015 0.843793 0.838400
1549.641 0.827707 0.816933 0.808912 0.803195 0.795396 0.786211 0.781623 0.780023 0.778261 0.776371
1540.322 0.777964 0.777509 0.775139 0.774652 0.776713 0.780348 0.783458 0.786254 0.788000 0.788509
1531.004 0.789458 0.790892 0.791352 0.789837 0.788052 0.786363 0.782556 0.778261 0.775443 0.771162
1521.686 0.767213 0.760816 0.754045 0.751712 0.751589 0.746225 0.740823 0.736992 0.734805 0.733428
1512.367 0.732222 0.729959 0.729113 0.725990 0.723877 0.723256 0.716175 0.694172 0.669887 0.646475
1503.049 0.615663 0.570288 0.511894 0.442068 0.342441 0.232712 0.147839 0.068153 0.018855 0.001792
1493.731 0.000000 0.000000 0.000000 0.017272 0.057349 0.106566 0.162975 0.229133 0.291408 0.352321
1484.412 0.411636 0.465924 0.511769 0.552114 0.587156 0.614799 0.637670 0.657923 0.675800 0.690652
1475.094 0.700840 0.709559 0.718097 0.723583 0.722236 0.718832 0.713106 0.704963 0.694611 0.682252
1465.776 0.667223 0.639948 0.609473 0.578028 0.540879 0.496584 0.445939 0.378516 0.305094 0.201034
1456.457 0.088006 0.029706 0.005197 0.000000 0.000000 0.000000 0.003110 0.010991 0.022054 0.036076
1447.139 0.050816 0.067978 0.089188 0.115534 0.144954 0.176462 0.210161 0.245783 0.284078 0.318901
1437.821 0.354301 0.413276 0.469638 0.513678 0.557918 0.601359 0.636008 0.663417 0.688568 0.708308
1428.502 0.719978 0.729113 0.734507 0.736239 0.737162 0.738280 0.738083 0.738234 0.737895 0.738636
1419.184 0.739104 0.737698 0.736732 0.737406 0.738040 0.738341 0.738222 0.738876 0.740039 0.742914
1409.866 0.745974 0.748932 0.750487 0.752134 0.754360 0.756963 0.759251 0.762047 0.763694 0.765387
1400.547 0.767168 0.770063 0.769857 0.767640 0.766312 0.765016 0.759406 0.748417 0.736135 0.723641
1391.229 0.709632 0.694056 0.677556 0.659462 0.638016 0.617188 0.599090 0.583242 0.568350 0.554662
1381.911 0.543924 0.534448 0.523620 0.512112 0.500349 0.488235 0.475708 0.464304 0.456275 0.451833
1372.592 0.449637 0.449901 0.452643 0.455235 0.457840 0.461172 0.465043 0.467800 0.470714 0.474043
1363.274 0.476217 0.478824 0.483899 0.489428 0.494792 0.500006 0.505385 0.510042 0.512596 0.513317
1353.955 0.513471 0.513174 0.511821 0.510050 0.509257 0.509460 0.510367 0.511215 0.514361 0.520066
1344.637 0.526555 0.533879 0.540869 0.546603 0.551667 0.554682 0.555784 0.556176 0.554580 0.548852
1335.319 0.541588 0.533178 0.523594 0.514246 0.505412 0.497753 0.493905 0.492861 0.495199 0.501371
1326.000 0.508015 0.516927 0.526469 0.534098 0.541212 0.547036 0.550584 0.553248 0.554345 0.553660
1316.682 0.551873 0.549041 0.546103 0.543359 0.542217 0.543090 0.546808 0.553112 0.560996 0.570305
1307.364 0.579637 0.589388 0.599868 0.609604 0.619168 0.628863 0.638319 0.647988 0.657306 0.664844
1298.045 0.669992 0.673988 0.677189 0.679094 0.681239 0.682916 0.684704 0.687313 0.690001 0.692427
1288.727 0.694516 0.696126 0.697942 0.698090 0.695349 0.692682 0.691574 0.690734 0.689063 0.687714
1279.409 0.688037 0.690120 0.693460 0.698823 0.703259 0.706710 0.710234 0.713258 0.715841 0.717639
1270.090 0.719552 0.720168 0.720229 0.721435 0.722116 0.721708 0.721179 0.720929 0.721095 0.721682
1260.772 0.721694 0.720780 0.720614 0.720688 0.719185 0.717479 0.718030 0.718028 0.717379 0.717160
1251.454 0.717008 0.716951 0.717448 0.718490 0.720357 0.722621 0.725443 0.728897 0.732350 0.736592
1242.135 0.741822 0.746505 0.751238 0.756299 0.761081 0.766846 0.773145 0.777713 0.781988 0.785891
1232.817 0.788650 0.792338 0.794019 0.793698 0.794901 0.796622 0.798990 0.801864 0.803359 0.804120
1223.499 0.805569 0.807465 0.809518 0.809971 0.809163 0.808517 0.807932 0.805283 0.801067 0.795596
1214.180 0.790253 0.785237 0.777970 0.768259 0.758418 0.749030 0.738045 0.726423 0.715755 0.705430
1204.862 0.693881 0.680190 0.666131 0.653383 0.641635 0.631310 0.622191 0.614846 0.610069 0.606621
1195.544 0.603409 0.601002 0.598905 0.596922 0.594847 0.592085 0.589391 0.585626 0.578784 0.568476
1186.225 0.554264 0.536706 0.515861 0.495703 0.481864 0.476093 0.481137 0.498616 0.526349 0.558411
1176.907 0.589122 0.615603 0.637076 0.653015 0.664351 0.672675 0.678677 0.683806 0.689194 0.693650
1167.589 0.697085 0.699186 0.701626 0.702950 0.701459 0.697214 0.689566 0.677010 0.657802 0.633033
1158.270 0.602534 0.568288 0.538410 0.518828 0.513383 0.525051 0.553369 0.594290 0.640065 0.683097
1148.952 0.719407 0.748101 0.770721 0.789780 0.807496 0.823470 0.837814 0.850184 0.860345 0.870119
1139.634 0.878225 0.884868 0.889529 0.892926 0.896265 0.898095 0.897535 0.896499 0.895367 0.893401
1130.315 0.889562 0.885155 0.881279 0.876705 0.871483 0.865253 0.858294 0.851134 0.844023 0.834712
1120.997 0.823948 0.812059 0.799398 0.787419 0.774483 0.761869 0.751892 0.743478 0.736329 0.732399
1111.679 0.730175 0.728246 0.727059 0.726776 0.726352 0.726454 0.726723 0.725152 0.722708 0.720871
1102.360 0.719215 0.715582 0.710967 0.706475 0.703129 0.700502 0.697048 0.693833 0.691974 0.688917
1093.042 0.685471 0.684154 0.683702 0.682121 0.678792 0.674203 0.670015 0.664723 0.656850 0.646599
1083.723 0.637400 0.628783 0.616649 0.605008 0.594954 0.583934 0.573011 0.560165 0.544466 0.526135
1074.405 0.505238 0.485609 0.468041 0.453300 0.443093 0.437927 0.439212 0.446411 0.458091 0.474241
1065.087 0.495237 0.518547 0.541216 0.563074 0.583546 0.602707 0.620008 0.634350 0.647839 0.661276
1055.768 0.672396 0.682390 0.690619 0.696693 0.703341 0.708525 0.711690 0.713893 0.715358 0.715884
1046.450 0.715066 0.713873 0.711892 0.707803 0.702737 0.695339 0.684459 0.669429 0.649362 0.625082
1037.132 0.592193 0.546114 0.489180 0.425894 0.360790 0.301690 0.255901 0.224939 0.205789 0.196920
1027.813 0.202208 0.223146 0.256591 0.297066 0.337148 0.372018 0.402451 0.428603 0.450446 0.470710
1018.495 0.491182 0.509123 0.522620 0.534626 0.546583 0.558130 0.567890 0.576500 0.584987 0.590305
1009.177 0.593914 0.596673 0.595503 0.589082 0.578770 0.567554 0.560498 0.563533 0.578941 0.603553
999.858 0.632527 0.659243 0.679042 0.693070 0.702929 0.710573 0.717374 0.722370 0.724521 0.725363
990.540 0.726149 0.725686 0.722076 0.715058 0.707936 0.700531 0.690404 0.679721 0.671041 0.663787
981.222 0.658679 0.658048 0.659632 0.665116 0.674309 0.683649 0.693707 0.701983 0.706658 0.707228
971.903 0.701287 0.690481 0.677042 0.661487 0.645294 0.628075 0.613815 0.605967 0.602787 0.604577
962.585 0.610766 0.622884 0.638831 0.654367 0.669173 0.680441 0.687141 0.691105 0.692217 0.691709
953.267 0.690317 0.687150 0.681979 0.674701 0.667557 0.661023 0.653076 0.644834 0.637504 0.631305
943.948 0.626488 0.623833 0.623806 0.625902 0.631359 0.639710 0.648220 0.656581 0.665596 0.675462
934.630 0.685717 0.695421 0.703854 0.709694 0.715353 0.721838 0.725009 0.726362 0.728218 0.728886
925.312 0.728783 0.728331 0.727477 0.726675 0.724619 0.719647 0.711310 0.701083 0.689957 0.673688
915.993 0.650615 0.624158 0.593913 0.559112 0.520327 0.481096 0.446531 0.417006 0.393948 0.379526
906.675 0.374146 0.380088 0.398273 0.426570 0.461277 0.501027 0.546569 0.594290 0.639405 0.680005
897.357 0.714244 0.742178 0.764219 0.780234 0.791720 0.800910 0.809050 0.813982 0.816371 0.819602
888.038 0.822138 0.823980 0.825460 0.825346 0.824915 0.824303 0.823526 0.822520 0.819255 0.814846
878.720 0.811275 0.808575 0.807140 0.804385 0.800225 0.796803 0.793333 0.789634 0.785535 0.782770
869.402 0.780197 0.777487 0.776027 0.775387 0.774759 0.772330 0.769628 0.769339 0.769077 0.768813
860.083 0.769230 0.767968 0.767147 0.766667 0.765507 0.765026 0.763846 0.760767 0.756358 0.750773
850.765 0.743075 0.731896 0.717848 0.701614 0.684084 0.668589 0.656487 0.646910 0.640599 0.637153
841.447 0.636092 0.641287 0.653846 0.671262 0.691725 0.715650 0.742236 0.767823 0.792396 0.815224
832.128 0.833911 0.846692 0.856323 0.866704 0.873807 0.877738 0.880539 0.883000 0.885367 0.886723
822.810 0.885981 0.883154 0.879216 0.876215 0.873916 0.870626 0.866278 0.858065 0.849546 0.844214
813.491 0.839456 0.832643 0.823303 0.816022 0.809950 0.801566 0.793157 0.786276 0.779914 0.773118
804.173 0.766634 0.761591 0.754517 0.744542 0.736265 0.727890 0.718033 0.709603 0.701712 0.692270
794.855 0.681465 0.669596 0.656582 0.642683 0.628782 0.614088 0.598081 0.581848 0.566277 0.551932
785.536 0.535269 0.515329 0.496056 0.475632 0.452916 0.428488 0.399864 0.369202 0.336254 0.299909
776.218 0.264690 0.231054 0.198021 0.166765 0.139278 0.115583 0.093471 0.075236 0.060262 0.045289
766.900 0.034886 0.030693 0.026825 0.021683 0.017344 0.013929 0.010955 0.009082 0.007377 0.005657
757.581 0.006094 0.008064 0.008866 0.010375 0.011537 0.011070 0.012484 0.014966 0.014980 0.014882
748.263 0.016774 0.021193 0.026427 0.034489 0.048603 0.068853 0.093356 0.121630 0.154644 0.189147
738.945 0.224208 0.261821 0.302180 0.346242 0.395513 0.450059 0.504485 0.555104 0.600520 0.634202
729.626 0.656349 0.671369 0.679496 0.680247 0.674218 0.666621 0.661815 0.655658 0.646012 0.637428
720.308 0.629996 0.621949 0.612098 0.600281 0.584891 0.565173 0.537655 0.496454 0.439930 0.368029
710.990 0.284257 0.198084 0.120502 0.060545 0.022047 0.004332 0.000000 0.000000 0.000000 0.000000
701.671 0.000000 0.000000 0.000000 0.000000 0.000000 0.000000 0.000000 0.000000 0.000000 0.005647
692.353 0.031468 0.080516 0.145470 0.209616 0.262420 0.308045 0.350146 0.387171 0.424520 0.462779
683.035 0.497049 0.529724 0.558702 0.582752 0.602797 0.616081 0.624443 0.630662 0.633603 0.634734
673.716 0.636284 0.634116 0.629464 0.630964 0.643385 0.669032 0.685681 0.651592 0.639731 0.641770
664.398 0.649088 0.655435 0.663949 0.676620 0.684798 0.690223 0.698596 0.705991 0.717979 0.730055
655.080 0.738033 0.746255 0.755212 0.765994 0.778080 0.791210
##END= 
