cm-1,%T
4000,99.62
3999,99.62
3998,99.62
3997,99.62
3996,99.63
3995,99.63
3994,99.63
3993,99.63
3992,99.63
3991,99.63
3990,99.62
3989,99.62
3988,99.62
3987,99.62
3986,99.62
3985,99.62
3984,99.62
3983,99.62
3982,99.62
3981,99.62
3980,99.62
3979,99.61
3978,99.61
3977,99.61
3976,99.61
3975,99.61
3974,99.61
3973,99.61
3972,99.61
3971,99.62
3970,99.62
3969,99.62
3968,99.62
3967,99.62
3966,99.63
3965,99.63
3964,99.64
3963,99.64
3962,99.65
3961,99.65
3960,99.65
3959,99.64
3958,99.64
3957,99.64
3956,99.64
3955,99.64
3954,99.64
3953,99.63
3952,99.63
3951,99.64
3950,99.65
3949,99.66
3948,99.67
3947,99.67
3946,99.67
3945,99.67
3944,99.67
3943,99.66
3942,99.66
3941,99.65
3940,99.65
3939,99.65
3938,99.64
3937,99.64
3936,99.64
3935,99.64
3934,99.65
3933,99.65
3932,99.65
3931,99.65
3930,99.65
3929,99.65
3928,99.65
3927,99.65
3926,99.65
3925,99.65
3924,99.65
3923,99.65
3922,99.65
3921,99.65
3920,99.65
3919,99.65
3918,99.65
3917,99.65
3916,99.64
3915,99.64
3914,99.63
3913,99.63
3912,99.63
3911,99.63
3910,99.63
3909,99.64
3908,99.64
3907,99.64
3906,99.65
3905,99.66
3904,99.67
3903,99.68
3902,99.7
3901,99.7
3900,99.69
3899,99.69
3898,99.68
3897,99.67
3896,99.67
3895,99.66
3894,99.66
3893,99.65
3892,99.65
3891,99.66
3890,99.66
3889,99.67
3888,99.67
3887,99.67
3886,99.67
3885,99.66
3884,99.66
3883,99.66
3882,99.67
3881,99.67
3880,99.66
3879,99.66
3878,99.66
3877,99.66
3876,99.66
3875,99.65
3874,99.65
3873,99.66
3872,99.67
3871,99.69
3870,99.7
3869,99.7
3868,99.69
3867,99.69
3866,99.69
3865,99.69
3864,99.68
3863,99.68
3862,99.68
3861,99.69
3860,99.69
3859,99.68
3858,99.67
3857,99.67
3856,99.67
3855,99.67
3854,99.68
3853,99.69
3852,99.7
3851,99.7
3850,99.7
3849,99.7
3848,99.7
3847,99.69
3846,99.69
3845,99.68
3844,99.68
3843,99.67
3842,99.67
3841,99.68
3840,99.68
3839,99.69
3838,99.7
3837,99.7
3836,99.69
3835,99.69
3834,99.69
3833,99.69
3832,99.69
3831,99.69
3830,99.69
3829,99.69
3828,99.68
3827,99.68
3826,99.67
3825,99.67
3824,99.67
3823,99.68
3822,99.68
3821,99.68
3820,99.67
3819,99.67
3818,99.67
3817,99.68
3816,99.69
3815,99.69
3814,99.68
3813,99.68
3812,99.67
3811,99.67
3810,99.67
3809,99.68
3808,99.69
3807,99.71
3806,99.71
3805,99.71
3804,99.71
3803,99.71
3802,99.71
3801,99.71
3800,99.7
3799,99.7
3798,99.69
3797,99.69
3796,99.7
3795,99.7
3794,99.7
3793,99.7
3792,99.69
3791,99.69
3790,99.69
3789,99.68
3788,99.68
3787,99.68
3786,99.68
3785,99.67
3784,99.67
3783,99.68
3782,99.68
3781,99.69
3780,99.69
3779,99.69
3778,99.69
3777,99.69
3776,99.69
3775,99.69
3774,99.69
3773,99.69
3772,99.7
3771,99.71
3770,99.71
3769,99.72
3768,99.71
3767,99.71
3766,99.71
3765,99.71
3764,99.71
3763,99.71
3762,99.72
3761,99.72
3760,99.72
3759,99.71
3758,99.71
3757,99.72
3756,99.73
3755,99.73
3754,99.74
3753,99.75
3752,99.75
3751,99.76
3750,99.78
3749,99.79
3748,99.79
3747,99.78
3746,99.77
3745,99.77
3744,99.76
3743,99.76
3742,99.76
3741,99.77
3740,99.77
3739,99.78
3738,99.79
3737,99.79
3736,99.79
3735,99.78
3734,99.79
3733,99.79
3732,99.8
3731,99.8
3730,99.79
3729,99.78
3728,99.78
3727,99.78
3726,99.77
3725,99.76
3724,99.75
3723,99.75
3722,99.74
3721,99.74
3720,99.74
3719,99.74
3718,99.73
3717,99.73
3716,99.73
3715,99.73
3714,99.73
3713,99.74
3712,99.74
3711,99.73
3710,99.73
3709,99.73
3708,99.73
3707,99.74
3706,99.74
3705,99.74
3704,99.74
3703,99.73
3702,99.73
3701,99.72
3700,99.72
3699,99.71
3698,99.71
3697,99.71
3696,99.71
3695,99.71
3694,99.71
3693,99.7
3692,99.69
3691,99.68
3690,99.69
3689,99.7
3688,99.72
3687,99.72
3686,99.72
3685,99.72
3684,99.71
3683,99.71
3682,99.71
3681,99.71
3680,99.7
3679,99.69
3678,99.69
3677,99.7
3676,99.7
3675,99.71
3674,99.71
3673,99.72
3672,99.72
3671,99.72
3670,99.72
3669,99.71
3668,99.71
3667,99.7
3666,99.7
3665,99.69
3664,99.68
3663,99.68
3662,99.68
3661,99.69
3660,99.69
3659,99.7
3658,99.7
3657,99.7
3656,99.69
3655,99.69
3654,99.69
3653,99.69
3652,99.7
3651,99.7
3650,99.71
3649,99.72
3648,99.72
3647,99.71
3646,99.7
3645,99.69
3644,99.69
3643,99.68
3642,99.68
3641,99.67
3640,99.67
3639,99.67
3638,99.68
3637,99.68
3636,99.69
3635,99.7
3634,99.7
3633,99.71
3632,99.71
3631,99.72
3630,99.73
3629,99.73
3628,99.73
3627,99.73
3626,99.73
3625,99.73
3624,99.73
3623,99.73
3622,99.73
3621,99.73
3620,99.72
3619,99.71
3618,99.71
3617,99.71
3616,99.72
3615,99.73
3614,99.74
3613,99.74
3612,99.74
3611,99.75
3610,99.75
3609,99.74
3608,99.72
3607,99.71
3606,99.7
3605,99.7
3604,99.7
3603,99.7
3602,99.7
3601,99.7
3600,99.71
3599,99.71
3598,99.72
3597,99.73
3596,99.74
3595,99.73
3594,99.73
3593,99.73
3592,99.74
3591,99.76
3590,99.77
3589,99.78
3588,99.78
3587,99.77
3586,99.75
3585,99.75
3584,99.75
3583,99.75
3582,99.75
3581,99.74
3580,99.73
3579,99.73
3578,99.73
3577,99.73
3576,99.73
3575,99.73
3574,99.73
3573,99.73
3572,99.73
3571,99.73
3570,99.74
3569,99.74
3568,99.75
3567,99.76
3566,99.76
3565,99.75
3564,99.75
3563,99.75
3562,99.74
3561,99.74
3560,99.73
3559,99.73
3558,99.72
3557,99.72
3556,99.72
3555,99.72
3554,99.72
3553,99.72
3552,99.72
3551,99.72
3550,99.73
3549,99.73
3548,99.74
3547,99.74
3546,99.74
3545,99.74
3544,99.73
3543,99.72
3542,99.71
3541,99.7
3540,99.7
3539,99.7
3538,99.7
3537,99.7
3536,99.7
3535,99.7
3534,99.71
3533,99.71
3532,99.71
3531,99.71
3530,99.71
3529,99.71
3528,99.71
3527,99.71
3526,99.71
3525,99.72
3524,99.72
3523,99.71
3522,99.7
3521,99.7
3520,99.69
3519,99.69
3518,99.69
3517,99.69
3516,99.69
3515,99.69
3514,99.69
3513,99.68
3512,99.68
3511,99.69
3510,99.69
3509,99.69
3508,99.69
3507,99.69
3506,99.69
3505,99.7
3504,99.7
3503,99.71
3502,99.7
3501,99.69
3500,99.69
3499,99.68
3498,99.67
3497,99.66
3496,99.65
3495,99.64
3494,99.63
3493,99.62
3492,99.61
3491,99.6
3490,99.59
3489,99.59
3488,99.59
3487,99.58
3486,99.57
3485,99.56
3484,99.55
3483,99.55
3482,99.55
3481,99.55
3480,99.55
3479,99.55
3478,99.54
3477,99.53
3476,99.51
3475,99.51
3474,99.5
3473,99.5
3472,99.51
3471,99.51
3470,99.51
3469,99.51
3468,99.49
3467,99.47
3466,99.45
3465,99.44
3464,99.45
3463,99.46
3462,99.48
3461,99.51
3460,99.53
3459,99.54
3458,99.55
3457,99.56
3456,99.58
3455,99.6
3454,99.62
3453,99.64
3452,99.65
3451,99.67
3450,99.68
3449,99.69
3448,99.7
3447,99.71
3446,99.72
3445,99.73
3444,99.73
3443,99.73
3442,99.74
3441,99.75
3440,99.76
3439,99.78
3438,99.79
3437,99.81
3436,99.82
3435,99.83
3434,99.84
3433,99.85
3432,99.86
3431,99.86
3430,99.87
3429,99.87
3428,99.87
3427,99.87
3426,99.87
3425,99.88
3424,99.88
3423,99.89
3422,99.9
3421,99.9
3420,99.9
3419,99.9
3418,99.9
3417,99.9
3416,99.9
3415,99.9
3414,99.9
3413,99.9
3412,99.91
3411,99.91
3410,99.91
3409,99.91
3408,99.91
3407,99.91
3406,99.9
3405,99.9
3404,99.9
3403,99.91
3402,99.91
3401,99.91
3400,99.91
3399,99.91
3398,99.9
3397,99.9
3396,99.89
3395,99.89
3394,99.89
3393,99.89
3392,99.9
3391,99.9
3390,99.9
3389,99.89
3388,99.89
3387,99.89
3386,99.89
3385,99.89
3384,99.89
3383,99.89
3382,99.89
3381,99.89
3380,99.89
3379,99.89
3378,99.89
3377,99.89
3376,99.9
3375,99.9
3374,99.9
3373,99.9
3372,99.91
3371,99.91
3370,99.91
3369,99.91
3368,99.91
3367,99.9
3366,99.9
3365,99.9
3364,99.9
3363,99.9
3362,99.9
3361,99.91
3360,99.91
3359,99.91
3358,99.92
3357,99.92
3356,99.93
3355,99.92
3354,99.92
3353,99.92
3352,99.92
3351,99.92
3350,99.92
3349,99.92
3348,99.92
3347,99.92
3346,99.92
3345,99.93
3344,99.93
3343,99.93
3342,99.94
3341,99.94
3340,99.94
3339,99.95
3338,99.96
3337,99.96
3336,99.96
3335,99.96
3334,99.96
3333,99.96
3332,99.97
3331,99.97
3330,99.97
3329,99.97
3328,99.97
3327,99.97
3326,99.97
3325,99.97
3324,99.97
3323,99.97
3322,99.97
3321,99.97
3320,99.97
3319,99.98
3318,99.98
3317,99.98
3316,99.99
3315,99.99
3314,99.99
3313,99.99
3312,99.99
3311,99.99
3310,100
3309,100
3308,100
3307,100
3306,100
3305,100
3304,100
3303,100
3302,100
3301,100
3300,99.99
3299,99.99
3298,100
3297,100
3296,100
3295,99.99
3294,99.99
3293,99.99
3292,99.99
3291,99.99
3290,99.98
3289,99.99
3288,99.99
3287,99.99
3286,99.99
3285,99.99
3284,99.99
3283,99.99
3282,99.99
3281,99.99
3280,99.99
3279,99.99
3278,99.99
3277,99.99
3276,99.99
3275,99.99
3274,99.98
3273,99.98
3272,99.97
3271,99.97
3270,99.97
3269,99.97
3268,99.97
3267,99.97
3266,99.96
3265,99.96
3264,99.96
3263,99.96
3262,99.96
3261,99.95
3260,99.95
3259,99.95
3258,99.95
3257,99.95
3256,99.96
3255,99.96
3254,99.97
3253,99.97
3252,99.97
3251,99.97
3250,99.97
3249,99.96
3248,99.96
3247,99.96
3246,99.96
3245,99.96
3244,99.96
3243,99.96
3242,99.95
3241,99.95
3240,99.95
3239,99.95
3238,99.95
3237,99.95
3236,99.95
3235,99.95
3234,99.95
3233,99.94
3232,99.94
3231,99.94
3230,99.94
3229,99.94
3228,99.94
3227,99.94
3226,99.94
3225,99.94
3224,99.94
3223,99.94
3222,99.94
3221,99.94
3220,99.94
3219,99.93
3218,99.93
3217,99.94
3216,99.94
3215,99.94
3214,99.94
3213,99.94
3212,99.93
3211,99.93
3210,99.92
3209,99.92
3208,99.92
3207,99.92
3206,99.92
3205,99.93
3204,99.93
3203,99.94
3202,99.93
3201,99.93
3200,99.93
3199,99.92
3198,99.92
3197,99.92
3196,99.92
3195,99.92
3194,99.92
3193,99.91
3192,99.91
3191,99.9
3190,99.9
3189,99.9
3188,99.91
3187,99.91
3186,99.92
3185,99.92
3184,99.92
3183,99.91
3182,99.91
3181,99.91
3180,99.91
3179,99.91
3178,99.91
3177,99.91
3176,99.91
3175,99.91
3174,99.92
3173,99.92
3172,99.91
3171,99.91
3170,99.91
3169,99.9
3168,99.9
3167,99.9
3166,99.9
3165,99.9
3164,99.9
3163,99.9
3162,99.91
3161,99.9
3160,99.9
3159,99.9
3158,99.89
3157,99.89
3156,99.89
3155,99.88
3154,99.87
3153,99.87
3152,99.87
3151,99.87
3150,99.87
3149,99.87
3148,99.87
3147,99.87
3146,99.86
3145,99.86
3144,99.85
3143,99.85
3142,99.85
3141,99.85
3140,99.85
3139,99.85
3138,99.84
3137,99.84
3136,99.83
3135,99.83
3134,99.84
3133,99.84
3132,99.84
3131,99.84
3130,99.84
3129,99.83
3128,99.83
3127,99.82
3126,99.81
3125,99.81
3124,99.81
3123,99.81
3122,99.81
3121,99.81
3120,99.81
3119,99.8
3118,99.8
3117,99.81
3116,99.8
3115,99.8
3114,99.79
3113,99.78
3112,99.77
3111,99.77
3110,99.76
3109,99.76
3108,99.76
3107,99.75
3106,99.75
3105,99.74
3104,99.74
3103,99.73
3102,99.73
3101,99.73
3100,99.73
3099,99.72
3098,99.72
3097,99.71
3096,99.7
3095,99.69
3094,99.68
3093,99.68
3092,99.68
3091,99.68
3090,99.67
3089,99.66
3088,99.64
3087,99.64
3086,99.63
3085,99.63
3084,99.62
3083,99.62
3082,99.61
3081,99.61
3080,99.6
3079,99.59
3078,99.58
3077,99.58
3076,99.57
3075,99.56
3074,99.55
3073,99.54
3072,99.54
3071,99.53
3070,99.52
3069,99.51
3068,99.5
3067,99.5
3066,99.49
3065,99.49
3064,99.48
3063,99.47
3062,99.47
3061,99.46
3060,99.46
3059,99.45
3058,99.44
3057,99.43
3056,99.42
3055,99.41
3054,99.4
3053,99.39
3052,99.39
3051,99.37
3050,99.36
3049,99.35
3048,99.34
3047,99.34
3046,99.33
3045,99.32
3044,99.31
3043,99.31
3042,99.29
3041,99.28
3040,99.27
3039,99.26
3038,99.24
3037,99.23
3036,99.22
3035,99.21
3034,99.19
3033,99.18
3032,99.16
3031,99.14
3030,99.13
3029,99.11
3028,99.09
3027,99.07
3026,99.05
3025,99.03
3024,99.02
3023,99
3022,98.98
3021,98.95
3020,98.92
3019,98.89
3018,98.87
3017,98.84
3016,98.81
3015,98.79
3014,98.75
3013,98.72
3012,98.68
3011,98.64
3010,98.6
3009,98.55
3008,98.5
3007,98.45
3006,98.39
3005,98.33
3004,98.27
3003,98.22
3002,98.16
3001,98.1
3000,98.04
2999,97.98
2998,97.92
2997,97.87
2996,97.82
2995,97.77
2994,97.72
2993,97.67
2992,97.61
2991,97.54
2990,97.47
2989,97.39
2988,97.31
2987,97.22
2986,97.12
2985,97
2984,96.87
2983,96.72
2982,96.55
2981,96.35
2980,96.13
2979,95.87
2978,95.58
2977,95.26
2976,94.89
2975,94.48
2974,94.04
2973,93.57
2972,93.07
2971,92.54
2970,91.95
2969,91.32
2968,90.63
2967,89.9
2966,89.14
2965,88.36
2964,87.57
2963,86.77
2962,85.96
2961,85.16
2960,84.38
2959,83.68
2958,83.08
2957,82.64
2956,82.39
2955,82.35
2954,82.52
2953,82.86
2952,83.31
2951,83.77
2950,84.17
2949,84.44
2948,84.55
2947,84.48
2946,84.27
2945,83.93
2944,83.49
2943,82.97
2942,82.35
2941,81.65
2940,80.84
2939,79.93
2938,78.91
2937,77.78
2936,76.54
2935,75.21
2934,73.81
2933,72.33
2932,70.82
2931,69.27
2930,67.72
2929,66.19
2928,64.68
2927,63.21
2926,61.76
2925,60.33
2924,58.91
2923,57.5
2922,56.12
2921,54.79
2920,53.56
2919,52.49
2918,51.66
2917,51.18
2916,51.18
2915,51.79
2914,53.06
2913,54.95
2912,57.31
2911,59.91
2910,62.54
2909,65.01
2908,67.25
2907,69.23
2906,70.94
2905,72.43
2904,73.72
2903,74.85
2902,75.86
2901,76.78
2900,77.62
2899,78.41
2898,79.16
2897,79.88
2896,80.57
2895,81.23
2894,81.88
2893,82.5
2892,83.1
2891,83.68
2890,84.25
2889,84.78
2888,85.3
2887,85.79
2886,86.26
2885,86.69
2884,87.08
2883,87.41
2882,87.65
2881,87.78
2880,87.79
2879,87.66
2878,87.39
2877,86.98
2876,86.45
2875,85.87
2874,85.31
2873,84.84
2872,84.52
2871,84.36
2870,84.33
2869,84.36
2868,84.38
2867,84.3
2866,84.09
2865,83.69
2864,83.09
2863,82.29
2862,81.27
2861,80.07
2860,78.69
2859,77.15
2858,75.46
2857,73.61
2856,71.58
2855,69.34
2854,66.94
2853,64.48
2852,62.2
2851,60.45
2850,59.6
2849,59.98
2848,61.67
2847,64.5
2846,68.07
2845,71.93
2844,75.67
2843,79.06
2842,81.97
2841,84.4
2840,86.38
2839,87.99
2838,89.3
2837,90.37
2836,91.25
2835,91.98
2834,92.61
2833,93.14
2832,93.6
2831,93.99
2830,94.33
2829,94.63
2828,94.9
2827,95.14
2826,95.36
2825,95.56
2824,95.75
2823,95.91
2822,96.07
2821,96.21
2820,96.34
2819,96.46
2818,96.57
2817,96.67
2816,96.76
2815,96.84
2814,96.93
2813,97.02
2812,97.1
2811,97.18
2810,97.26
2809,97.33
2808,97.41
2807,97.48
2806,97.55
2805,97.62
2804,97.68
2803,97.73
2802,97.79
2801,97.84
2800,97.9
2799,97.95
2798,98
2797,98.05
2796,98.09
2795,98.13
2794,98.17
2793,98.2
2792,98.23
2791,98.26
2790,98.29
2789,98.32
2788,98.35
2787,98.38
2786,98.4
2785,98.43
2784,98.46
2783,98.49
2782,98.52
2781,98.55
2780,98.58
2779,98.61
2778,98.64
2777,98.66
2776,98.68
2775,98.7
2774,98.72
2773,98.74
2772,98.75
2771,98.76
2770,98.78
2769,98.79
2768,98.81
2767,98.82
2766,98.83
2765,98.84
2764,98.85
2763,98.86
2762,98.88
2761,98.89
2760,98.91
2759,98.92
2758,98.93
2757,98.93
2756,98.94
2755,98.94
2754,98.95
2753,98.96
2752,98.96
2751,98.97
2750,98.97
2749,98.97
2748,98.97
2747,98.97
2746,98.96
2745,98.96
2744,98.96
2743,98.96
2742,98.96
2741,98.95
2740,98.94
2739,98.93
2738,98.91
2737,98.9
2736,98.89
2735,98.88
2734,98.87
2733,98.86
2732,98.86
2731,98.85
2730,98.86
2729,98.87
2728,98.89
2727,98.91
2726,98.93
2725,98.95
2724,98.97
2723,98.99
2722,99
2721,99.02
2720,99.03
2719,99.04
2718,99.05
2717,99.06
2716,99.07
2715,99.07
2714,99.08
2713,99.08
2712,99.09
2711,99.1
2710,99.11
2709,99.12
2708,99.13
2707,99.13
2706,99.13
2705,99.13
2704,99.13
2703,99.13
2702,99.13
2701,99.13
2700,99.13
2699,99.13
2698,99.13
2697,99.13
2696,99.12
2695,99.12
2694,99.12
2693,99.12
2692,99.11
2691,99.11
2690,99.11
2689,99.11
2688,99.1
2687,99.1
2686,99.1
2685,99.1
2684,99.1
2683,99.1
2682,99.09
2681,99.09
2680,99.08
2679,99.07
2678,99.07
2677,99.07
2676,99.06
2675,99.06
2674,99.05
2673,99.05
2672,99.04
2671,99.04
2670,99.05
2669,99.06
2668,99.06
2667,99.07
2666,99.07
2665,99.08
2664,99.08
2663,99.09
2662,99.1
2661,99.1
2660,99.11
2659,99.12
2658,99.12
2657,99.13
2656,99.14
2655,99.14
2654,99.15
2653,99.15
2652,99.16
2651,99.16
2650,99.17
2649,99.18
2648,99.19
2647,99.19
2646,99.19
2645,99.19
2644,99.2
2643,99.2
2642,99.21
2641,99.22
2640,99.22
2639,99.22
2638,99.22
2637,99.22
2636,99.23
2635,99.23
2634,99.23
2633,99.24
2632,99.24
2631,99.24
2630,99.25
2629,99.25
2628,99.26
2627,99.27
2626,99.28
2625,99.29
2624,99.3
2623,99.31
2622,99.31
2621,99.32
2620,99.33
2619,99.34
2618,99.34
2617,99.35
2616,99.35
2615,99.36
2614,99.37
2613,99.37
2612,99.37
2611,99.38
2610,99.38
2609,99.39
2608,99.4
2607,99.4
2606,99.41
2605,99.42
2604,99.42
2603,99.43
2602,99.43
2601,99.43
2600,99.44
2599,99.45
2598,99.45
2597,99.45
2596,99.45
2595,99.46
2594,99.46
2593,99.47
2592,99.47
2591,99.47
2590,99.47
2589,99.47
2588,99.49
2587,99.5
2586,99.51
2585,99.52
2584,99.52
2583,99.52
2582,99.52
2581,99.52
2580,99.52
2579,99.53
2578,99.53
2577,99.54
2576,99.54
2575,99.54
2574,99.53
2573,99.53
2572,99.53
2571,99.53
2570,99.53
2569,99.54
2568,99.55
2567,99.55
2566,99.56
2565,99.56
2564,99.55
2563,99.55
2562,99.56
2561,99.57
2560,99.58
2559,99.58
2558,99.59
2557,99.59
2556,99.58
2555,99.58
2554,99.58
2553,99.59
2552,99.59
2551,99.6
2550,99.6
2549,99.6
2548,99.6
2547,99.61
2546,99.61
2545,99.62
2544,99.62
2543,99.62
2542,99.61
2541,99.61
2540,99.61
2539,99.61
2538,99.61
2537,99.61
2536,99.61
2535,99.6
2534,99.6
2533,99.59
2532,99.59
2531,99.58
2530,99.58
2529,99.58
2528,99.58
2527,99.57
2526,99.57
2525,99.57
2524,99.58
2523,99.6
2522,99.61
2521,99.62
2520,99.62
2519,99.61
2518,99.6
2517,99.6
2516,99.61
2515,99.61
2514,99.61
2513,99.61
2512,99.61
2511,99.62
2510,99.62
2509,99.63
2508,99.63
2507,99.63
2506,99.64
2505,99.65
2504,99.65
2503,99.64
2502,99.64
2501,99.63
2500,99.63
2499,99.62
2498,99.62
2497,99.63
2496,99.65
2495,99.66
2494,99.66
2493,99.65
2492,99.64
2491,99.63
2490,99.64
2489,99.64
2488,99.65
2487,99.65
2486,99.66
2485,99.66
2484,99.66
2483,99.66
2482,99.66
2481,99.66
2480,99.66
2479,99.66
2478,99.66
2477,99.66
2476,99.66
2475,99.66
2474,99.66
2473,99.65
2472,99.65
2471,99.66
2470,99.67
2469,99.69
2468,99.69
2467,99.69
2466,99.69
2465,99.68
2464,99.68
2463,99.67
2462,99.68
2461,99.68
2460,99.68
2459,99.68
2458,99.67
2457,99.68
2456,99.68
2455,99.68
2454,99.68
2453,99.68
2452,99.68
2451,99.68
2450,99.68
2449,99.68
2448,99.68
2447,99.67
2446,99.67
2445,99.67
2444,99.67
2443,99.67
2442,99.67
2441,99.68
2440,99.68
2439,99.67
2438,99.67
2437,99.67
2436,99.67
2435,99.67
2434,99.67
2433,99.67
2432,99.66
2431,99.66
2430,99.66
2429,99.66
2428,99.66
2427,99.65
2426,99.65
2425,99.64
2424,99.64
2423,99.64
2422,99.64
2421,99.65
2420,99.65
2419,99.65
2418,99.64
2417,99.64
2416,99.64
2415,99.63
2414,99.63
2413,99.63
2412,99.63
2411,99.63
2410,99.64
2409,99.63
2408,99.63
2407,99.62
2406,99.62
2405,99.62
2404,99.62
2403,99.62
2402,99.62
2401,99.62
2400,99.63
2399,99.63
2398,99.63
2397,99.63
2396,99.63
2395,99.63
2394,99.62
2393,99.62
2392,99.61
2391,99.6
2390,99.59
2389,99.6
2388,99.6
2387,99.6
2386,99.61
2385,99.61
2384,99.61
2383,99.61
2382,99.61
2381,99.61
2380,99.61
2379,99.6
2378,99.6
2377,99.59
2376,99.59
2375,99.59
2374,99.6
2373,99.6
2372,99.6
2371,99.6
2370,99.6
2369,99.61
2368,99.61
2367,99.61
2366,99.62
2365,99.63
2364,99.62
2363,99.61
2362,99.59
2361,99.56
2360,99.54
2359,99.55
2358,99.58
2357,99.6
2356,99.6
2355,99.58
2354,99.56
2353,99.55
2352,99.56
2351,99.57
2350,99.57
2349,99.57
2348,99.55
2347,99.52
2346,99.51
2345,99.51
2344,99.53
2343,99.53
2342,99.52
2341,99.52
2340,99.52
2339,99.52
2338,99.52
2337,99.51
2336,99.51
2335,99.5
2334,99.49
2333,99.49
2332,99.48
2331,99.47
2330,99.47
2329,99.48
2328,99.49
2327,99.49
2326,99.49
2325,99.49
2324,99.49
2323,99.49
2322,99.49
2321,99.5
2320,99.5
2319,99.51
2318,99.51
2317,99.51
2316,99.51
2315,99.5
2314,99.5
2313,99.5
2312,99.51
2311,99.52
2310,99.52
2309,99.53
2308,99.53
2307,99.54
2306,99.54
2305,99.54
2304,99.54
2303,99.54
2302,99.54
2301,99.54
2300,99.55
2299,99.57
2298,99.58
2297,99.59
2296,99.59
2295,99.59
2294,99.59
2293,99.59
2292,99.58
2291,99.58
2290,99.59
2289,99.59
2288,99.6
2287,99.6
2286,99.6
2285,99.6
2284,99.61
2283,99.62
2282,99.63
2281,99.65
2280,99.65
2279,99.65
2278,99.64
2277,99.63
2276,99.62
2275,99.62
2274,99.62
2273,99.62
2272,99.62
2271,99.63
2270,99.64
2269,99.66
2268,99.67
2267,99.68
2266,99.69
2265,99.68
2264,99.67
2263,99.65
2262,99.64
2261,99.64
2260,99.64
2259,99.65
2258,99.66
2257,99.67
2256,99.67
2255,99.67
2254,99.67
2253,99.66
2252,99.66
2251,99.65
2250,99.65
2249,99.66
2248,99.68
2247,99.7
2246,99.71
2245,99.72
2244,99.73
2243,99.74
2242,99.75
2241,99.75
2240,99.75
2239,99.74
2238,99.73
2237,99.73
2236,99.73
2235,99.73
2234,99.74
2233,99.75
2232,99.75
2231,99.75
2230,99.75
2229,99.76
2228,99.76
2227,99.77
2226,99.77
2225,99.76
2224,99.75
2223,99.73
2222,99.73
2221,99.74
2220,99.75
2219,99.76
2218,99.78
2217,99.81
2216,99.82
2215,99.83
2214,99.83
2213,99.84
2212,99.85
2211,99.84
2210,99.83
2209,99.82
2208,99.81
2207,99.8
2206,99.81
2205,99.82
2204,99.82
2203,99.82
2202,99.82
2201,99.82
2200,99.81
2199,99.8
2198,99.79
2197,99.8
2196,99.82
2195,99.84
2194,99.86
2193,99.86
2192,99.85
2191,99.83
2190,99.82
2189,99.84
2188,99.86
2187,99.86
2186,99.87
2185,99.88
2184,99.88
2183,99.87
2182,99.86
2181,99.84
2180,99.83
2179,99.82
2178,99.82
2177,99.81
2176,99.8
2175,99.77
2174,99.76
2173,99.75
2172,99.75
2171,99.74
2170,99.76
2169,99.79
2168,99.81
2167,99.81
2166,99.81
2165,99.82
2164,99.84
2163,99.87
2162,99.92
2161,99.97
2160,99.99
2159,99.98
2158,99.95
2157,99.89
2156,99.83
2155,99.78
2154,99.77
2153,99.77
2152,99.76
2151,99.72
2150,99.69
2149,99.69
2148,99.7
2147,99.7
2146,99.69
2145,99.69
2144,99.69
2143,99.7
2142,99.73
2141,99.76
2140,99.79
2139,99.8
2138,99.8
2137,99.79
2136,99.76
2135,99.73
2134,99.7
2133,99.7
2132,99.7
2131,99.71
2130,99.71
2129,99.71
2128,99.7
2127,99.69
2126,99.68
2125,99.67
2124,99.67
2123,99.66
2122,99.67
2121,99.69
2120,99.7
2119,99.69
2118,99.68
2117,99.68
2116,99.68
2115,99.68
2114,99.67
2113,99.66
2112,99.65
2111,99.64
2110,99.65
2109,99.66
2108,99.67
2107,99.66
2106,99.65
2105,99.66
2104,99.66
2103,99.65
2102,99.65
2101,99.64
2100,99.64
2099,99.63
2098,99.63
2097,99.62
2096,99.61
2095,99.61
2094,99.61
2093,99.61
2092,99.6
2091,99.59
2090,99.57
2089,99.55
2088,99.54
2087,99.53
2086,99.53
2085,99.54
2084,99.54
2083,99.53
2082,99.5
2081,99.49
2080,99.48
2079,99.48
2078,99.49
2077,99.5
2076,99.52
2075,99.54
2074,99.56
2073,99.59
2072,99.61
2071,99.61
2070,99.61
2069,99.61
2068,99.61
2067,99.62
2066,99.62
2065,99.62
2064,99.6
2063,99.57
2062,99.56
2061,99.57
2060,99.57
2059,99.56
2058,99.55
2057,99.55
2056,99.56
2055,99.56
2054,99.56
2053,99.56
2052,99.57
2051,99.58
2050,99.6
2049,99.62
2048,99.62
2047,99.62
2046,99.62
2045,99.61
2044,99.58
2043,99.53
2042,99.51
2041,99.52
2040,99.54
2039,99.55
2038,99.58
2037,99.63
2036,99.65
2035,99.64
2034,99.63
2033,99.63
2032,99.62
2031,99.61
2030,99.63
2029,99.67
2028,99.71
2027,99.71
2026,99.7
2025,99.67
2024,99.64
2023,99.61
2022,99.59
2021,99.59
2020,99.59
2019,99.58
2018,99.58
2017,99.6
2016,99.6
2015,99.59
2014,99.58
2013,99.59
2012,99.6
2011,99.6
2010,99.6
2009,99.6
2008,99.61
2007,99.62
2006,99.66
2005,99.7
2004,99.71
2003,99.69
2002,99.69
2001,99.71
2000,99.74
1999,99.77
1998,99.8
1997,99.82
1996,99.8
1995,99.76
1994,99.73
1993,99.72
1992,99.73
1991,99.74
1990,99.75
1989,99.76
1988,99.74
1987,99.7
1986,99.69
1985,99.7
1984,99.71
1983,99.7
1982,99.71
1981,99.73
1980,99.73
1979,99.71
1978,99.7
1977,99.71
1976,99.71
1975,99.71
1974,99.72
1973,99.74
1972,99.75
1971,99.74
1970,99.75
1969,99.78
1968,99.78
1967,99.77
1966,99.78
1965,99.8
1964,99.81
1963,99.8
1962,99.79
1961,99.78
1960,99.75
1959,99.72
1958,99.71
1957,99.7
1956,99.69
1955,99.67
1954,99.67
1953,99.7
1952,99.72
1951,99.72
1950,99.72
1949,99.71
1948,99.71
1947,99.69
1946,99.68
1945,99.67
1944,99.66
1943,99.63
1942,99.62
1941,99.63
1940,99.63
1939,99.63
1938,99.62
1937,99.62
1936,99.62
1935,99.62
1934,99.62
1933,99.63
1932,99.64
1931,99.64
1930,99.65
1929,99.66
1928,99.66
1927,99.64
1926,99.63
1925,99.62
1924,99.62
1923,99.61
1922,99.6
1921,99.61
1920,99.62
1919,99.62
1918,99.62
1917,99.62
1916,99.63
1915,99.63
1914,99.63
1913,99.64
1912,99.63
1911,99.62
1910,99.61
1909,99.6
1908,99.58
1907,99.57
1906,99.58
1905,99.59
1904,99.6
1903,99.6
1902,99.59
1901,99.58
1900,99.57
1899,99.55
1898,99.56
1897,99.57
1896,99.57
1895,99.55
1894,99.54
1893,99.54
1892,99.54
1891,99.54
1890,99.55
1889,99.57
1888,99.57
1887,99.57
1886,99.56
1885,99.56
1884,99.56
1883,99.55
1882,99.54
1881,99.54
1880,99.53
1879,99.52
1878,99.52
1877,99.54
1876,99.54
1875,99.53
1874,99.53
1873,99.53
1872,99.54
1871,99.54
1870,99.55
1869,99.56
1868,99.54
1867,99.51
1866,99.49
1865,99.49
1864,99.49
1863,99.48
1862,99.48
1861,99.48
1860,99.48
1859,99.47
1858,99.47
1857,99.47
1856,99.46
1855,99.45
1854,99.44
1853,99.44
1852,99.44
1851,99.43
1850,99.44
1849,99.45
1848,99.44
1847,99.42
1846,99.41
1845,99.41
1844,99.41
1843,99.4
1842,99.39
1841,99.39
1840,99.38
1839,99.37
1838,99.36
1837,99.36
1836,99.35
1835,99.33
1834,99.32
1833,99.32
1832,99.31
1831,99.29
1830,99.27
1829,99.27
1828,99.27
1827,99.25
1826,99.25
1825,99.24
1824,99.23
1823,99.2
1822,99.18
1821,99.17
1820,99.14
1819,99.11
1818,99.09
1817,99.08
1816,99.06
1815,99.02
1814,99
1813,98.98
1812,98.94
1811,98.9
1810,98.87
1809,98.85
1808,98.83
1807,98.8
1806,98.77
1805,98.76
1804,98.74
1803,98.71
1802,98.68
1801,98.66
1800,98.63
1799,98.58
1798,98.56
1797,98.55
1796,98.53
1795,98.49
1794,98.47
1793,98.45
1792,98.41
1791,98.34
1790,98.29
1789,98.26
1788,98.22
1787,98.17
1786,98.12
1785,98.08
1784,98.04
1783,97.98
1782,97.92
1781,97.86
1780,97.79
1779,97.7
1778,97.62
1777,97.55
1776,97.46
1775,97.35
1774,97.23
1773,97.11
1772,96.92
1771,96.69
1770,96.47
1769,96.23
1768,95.92
1767,95.52
1766,95.1
1765,94.67
1764,94.13
1763,93.42
1762,92.5
1761,91.45
1760,90.35
1759,89.17
1758,87.83
1757,86.21
1756,84.4
1755,82.6
1754,80.92
1753,79.19
1752,77.16
1751,74.77
1750,72.14
1749,69.3
1748,66.11
1747,62.54
1746,58.75
1745,54.84
1744,50.93
1743,47.38
1742,44.61
1741,43.02
1740,43.09
1739,45.04
1738,48.23
1737,51.78
1736,55.54
1735,59.85
1734,64.38
1733,67.61
1732,68.81
1731,68.52
1730,67.38
1729,66.07
1728,65.4
1727,65.9
1726,67.71
1725,70.66
1724,74.38
1723,78.22
1722,81.53
1721,84.07
1720,86.06
1719,87.8
1718,89.44
1717,90.82
1716,91.81
1715,92.52
1714,93.05
1713,93.47
1712,93.82
1711,94.16
1710,94.47
1709,94.73
1708,94.95
1707,95.15
1706,95.32
1705,95.41
1704,95.45
1703,95.47
1702,95.51
1701,95.58
1700,95.74
1699,95.95
1698,96.16
1697,96.35
1696,96.58
1695,96.81
1694,96.97
1693,97.04
1692,97.08
1691,97.12
1690,97.18
1689,97.25
1688,97.33
1687,97.43
1686,97.55
1685,97.69
1684,97.85
1683,98
1682,98.09
1681,98.15
1680,98.2
1679,98.25
1678,98.29
1677,98.32
1676,98.37
1675,98.42
1674,98.48
1673,98.5
1672,98.53
1671,98.58
1670,98.62
1669,98.66
1668,98.68
1667,98.72
1666,98.74
1665,98.76
1664,98.78
1663,98.81
1662,98.84
1661,98.86
1660,98.88
1659,98.9
1658,98.92
1657,98.92
1656,98.92
1655,98.93
1654,98.96
1653,98.98
1652,99.02
1651,99.06
1650,99.07
1649,99.07
1648,99.08
1647,99.11
1646,99.14
1645,99.17
1644,99.19
1643,99.22
1642,99.24
1641,99.26
1640,99.27
1639,99.28
1638,99.29
1637,99.3
1636,99.31
1635,99.32
1634,99.34
1633,99.34
1632,99.34
1631,99.34
1630,99.34
1629,99.34
1628,99.33
1627,99.33
1626,99.34
1625,99.34
1624,99.35
1623,99.36
1622,99.37
1621,99.36
1620,99.35
1619,99.36
1618,99.37
1617,99.38
1616,99.38
1615,99.39
1614,99.4
1613,99.41
1612,99.41
1611,99.43
1610,99.45
1609,99.45
1608,99.44
1607,99.44
1606,99.45
1605,99.44
1604,99.44
1603,99.44
1602,99.44
1601,99.43
1600,99.42
1599,99.41
1598,99.41
1597,99.4
1596,99.38
1595,99.38
1594,99.38
1593,99.38
1592,99.37
1591,99.38
1590,99.38
1589,99.37
1588,99.36
1587,99.36
1586,99.36
1585,99.36
1584,99.36
1583,99.37
1582,99.37
1581,99.37
1580,99.36
1579,99.36
1578,99.36
1577,99.36
1576,99.36
1575,99.36
1574,99.35
1573,99.34
1572,99.32
1571,99.31
1570,99.31
1569,99.3
1568,99.3
1567,99.31
1566,99.31
1565,99.3
1564,99.28
1563,99.26
1562,99.25
1561,99.23
1560,99.23
1559,99.25
1558,99.24
1557,99.24
1556,99.23
1555,99.23
1554,99.24
1553,99.24
1552,99.23
1551,99.24
1550,99.25
1549,99.26
1548,99.28
1547,99.31
1546,99.34
1545,99.36
1544,99.37
1543,99.37
1542,99.37
1541,99.35
1540,99.31
1539,99.29
1538,99.29
1537,99.27
1536,99.25
1535,99.23
1534,99.22
1533,99.2
1532,99.17
1531,99.16
1530,99.16
1529,99.14
1528,99.12
1527,99.11
1526,99.1
1525,99.08
1524,99.05
1523,99.03
1522,99.02
1521,99
1520,98.98
1519,98.96
1518,98.96
1517,98.94
1516,98.91
1515,98.9
1514,98.9
1513,98.89
1512,98.87
1511,98.85
1510,98.83
1509,98.81
1508,98.78
1507,98.73
1506,98.7
1505,98.68
1504,98.67
1503,98.66
1502,98.65
1501,98.63
1500,98.6
1499,98.57
1498,98.55
1497,98.52
1496,98.49
1495,98.47
1494,98.46
1493,98.44
1492,98.4
1491,98.38
1490,98.35
1489,98.29
1488,98.21
1487,98.13
1486,98.05
1485,97.94
1484,97.81
1483,97.66
1482,97.48
1481,97.23
1480,96.91
1479,96.52
1478,95.94
1477,95.01
1476,93.7
1475,92.15
1474,90.56
1473,89.07
1472,87.87
1471,86.99
1470,86.17
1469,85.2
1468,84.03
1467,82.7
1466,81.34
1465,80.33
1464,80.18
1463,80.92
1462,82.09
1461,83.23
1460,84.1
1459,84.67
1458,85.02
1457,85.41
1456,85.99
1455,86.65
1454,87.3
1453,87.94
1452,88.54
1451,89.02
1450,89.37
1449,89.62
1448,89.87
1447,90.15
1446,90.49
1445,90.87
1444,91.26
1443,91.63
1442,91.96
1441,92.24
1440,92.46
1439,92.64
1438,92.8
1437,92.96
1436,93.11
1435,93.18
1434,93.16
1433,93.12
1432,93.1
1431,93.14
1430,93.29
1429,93.56
1428,93.86
1427,94.11
1426,94.28
1425,94.36
1424,94.33
1423,94.21
1422,94
1421,93.72
1420,93.29
1419,92.61
1418,91.72
1417,90.75
1416,89.76
1415,88.83
1414,88.15
1413,87.94
1412,88.3
1411,89.17
1410,90.29
1409,91.4
1408,92.34
1407,93.04
1406,93.53
1405,93.82
1404,93.94
1403,93.91
1402,93.75
1401,93.48
1400,93.08
1399,92.49
1398,91.75
1397,90.92
1396,89.96
1395,88.89
1394,87.89
1393,87.2
1392,86.92
1391,86.99
1390,87.31
1389,87.8
1388,88.37
1387,88.89
1386,89.23
1385,89.33
1384,89.19
1383,88.87
1382,88.39
1381,87.83
1380,87.33
1379,87
1378,86.92
1377,87.08
1376,87.45
1375,87.96
1374,88.5
1373,88.98
1372,89.36
1371,89.65
1370,89.88
1369,90.07
1368,90.23
1367,90.36
1366,90.47
1365,90.55
1364,90.62
1363,90.66
1362,90.66
1361,90.62
1360,90.54
1359,90.43
1358,90.3
1357,90.15
1356,89.99
1355,89.83
1354,89.69
1353,89.59
1352,89.56
1351,89.62
1350,89.78
1349,90.02
1348,90.3
1347,90.57
1346,90.79
1345,90.92
1344,90.94
1343,90.86
1342,90.7
1341,90.47
1340,90.23
1339,90.13
1338,90.23
1337,90.53
1336,90.91
1335,91.21
1334,91.35
1333,91.28
1332,91.06
1331,90.77
1330,90.5
1329,90.35
1328,90.35
1327,90.52
1326,90.79
1325,91.06
1324,91.27
1323,91.38
1322,91.38
1321,91.32
1320,91.24
1319,91.17
1318,91.12
1317,91.08
1316,91.05
1315,91
1314,90.9
1313,90.75
1312,90.57
1311,90.37
1310,90.14
1309,89.89
1308,89.61
1307,89.3
1306,88.97
1305,88.63
1304,88.29
1303,87.97
1302,87.66
1301,87.37
1300,87.12
1299,86.94
1298,86.87
1297,86.92
1296,87.07
1295,87.27
1294,87.47
1293,87.64
1292,87.76
1291,87.83
1290,87.85
1289,87.8
1288,87.66
1287,87.48
1286,87.31
1285,87.2
1284,87.16
1283,87.15
1282,87.12
1281,87.02
1280,86.88
1279,86.73
1278,86.59
1277,86.41
1276,86.13
1275,85.7
1274,85.09
1273,84.35
1272,83.54
1271,82.75
1270,82.08
1269,81.62
1268,81.46
1267,81.61
1266,82.02
1265,82.53
1264,82.98
1263,83.26
1262,83.35
1261,83.3
1260,83.22
1259,83.14
1258,83.07
1257,82.97
1256,82.8
1255,82.62
1254,82.46
1253,82.36
1252,82.34
1251,82.43
1250,82.62
1249,82.87
1248,83.12
1247,83.27
1246,83.25
1245,83.03
1244,82.62
1243,82.05
1242,81.34
1241,80.5
1240,79.55
1239,78.62
1238,77.85
1237,77.42
1236,77.44
1235,77.91
1234,78.73
1233,79.67
1232,80.51
1231,81.11
1230,81.41
1229,81.5
1228,81.53
1227,81.67
1226,81.99
1225,82.43
1224,82.87
1223,83.18
1222,83.3
1221,83.29
1220,83.23
1219,83.22
1218,83.27
1217,83.37
1216,83.45
1215,83.49
1214,83.47
1213,83.33
1212,83.03
1211,82.5
1210,81.72
1209,80.68
1208,79.46
1207,78.19
1206,77.09
1205,76.39
1204,76.18
1203,76.4
1202,76.81
1201,77.18
1200,77.41
1199,77.54
1198,77.69
1197,77.91
1196,78.22
1195,78.61
1194,79.03
1193,79.41
1192,79.67
1191,79.73
1190,79.52
1189,78.98
1188,78.09
1187,76.88
1186,75.41
1185,73.71
1184,71.88
1183,69.95
1182,67.97
1181,65.88
1180,63.64
1179,61.2
1178,58.59
1177,55.86
1176,53.18
1175,50.81
1174,49.1
1173,48.3
1172,48.49
1171,49.55
1170,51.17
1169,53
1168,54.79
1167,56.42
1166,57.85
1165,59.08
1164,60.14
1163,61.06
1162,61.87
1161,62.59
1160,63.23
1159,63.83
1158,64.39
1157,64.92
1156,65.4
1155,65.87
1154,66.32
1153,66.75
1152,67.18
1151,67.63
1150,68.12
1149,68.64
1148,69.2
1147,69.85
1146,70.6
1145,71.47
1144,72.48
1143,73.62
1142,74.89
1141,76.23
1140,77.63
1139,79.03
1138,80.39
1137,81.68
1136,82.84
1135,83.87
1134,84.72
1133,85.37
1132,85.8
1131,86
1130,85.97
1129,85.77
1128,85.45
1127,85.1
1126,84.74
1125,84.39
1124,84.02
1123,83.62
1122,83.16
1121,82.63
1120,82.05
1119,81.45
1118,80.86
1117,80.29
1116,79.76
1115,79.25
1114,78.7
1113,78.05
1112,77.21
1111,76.12
1110,74.78
1109,73.25
1108,71.75
1107,70.53
1106,69.78
1105,69.56
1104,69.76
1103,70.24
1102,70.84
1101,71.5
1100,72.2
1099,72.98
1098,73.82
1097,74.71
1096,75.62
1095,76.56
1094,77.5
1093,78.38
1092,79.16
1091,79.79
1090,80.28
1089,80.69
1088,81.12
1087,81.68
1086,82.38
1085,83.17
1084,83.96
1083,84.71
1082,85.37
1081,85.91
1080,86.34
1079,86.65
1078,86.87
1077,87
1076,87.09
1075,87.18
1074,87.29
1073,87.42
1072,87.57
1071,87.71
1070,87.81
1069,87.86
1068,87.85
1067,87.76
1066,87.61
1065,87.38
1064,87.13
1063,86.9
1062,86.73
1061,86.65
1060,86.65
1059,86.74
1058,86.91
1057,87.17
1056,87.49
1055,87.85
1054,88.2
1053,88.49
1052,88.7
1051,88.85
1050,88.96
1049,89.05
1048,89.14
1047,89.23
1046,89.32
1045,89.4
1044,89.48
1043,89.57
1042,89.65
1041,89.73
1040,89.8
1039,89.86
1038,89.91
1037,89.97
1036,90.05
1035,90.17
1034,90.3
1033,90.42
1032,90.51
1031,90.55
1030,90.55
1029,90.53
1028,90.53
1027,90.56
1026,90.63
1025,90.7
1024,90.75
1023,90.77
1022,90.75
1021,90.69
1020,90.63
1019,90.57
1018,90.54
1017,90.54
1016,90.58
1015,90.65
1014,90.75
1013,90.89
1012,91.07
1011,91.29
1010,91.52
1009,91.75
1008,91.96
1007,92.14
1006,92.28
1005,92.37
1004,92.42
1003,92.43
1002,92.4
1001,92.35
1000,92.29
999,92.24
998,92.24
997,92.26
996,92.3
995,92.33
994,92.35
993,92.37
992,92.38
991,92.38
990,92.37
989,92.35
988,92.32
987,92.31
986,92.29
985,92.26
984,92.25
983,92.26
982,92.33
981,92.43
980,92.54
979,92.61
978,92.6
977,92.51
976,92.34
975,92.14
974,91.95
973,91.85
972,91.87
971,92.01
970,92.2
969,92.36
968,92.41
967,92.28
966,91.96
965,91.45
964,90.83
963,90.19
962,89.65
961,89.29
960,89.14
959,89.2
958,89.45
957,89.88
956,90.46
955,91.13
954,91.81
953,92.4
952,92.87
951,93.19
950,93.37
949,93.41
948,93.37
947,93.3
946,93.29
945,93.42
944,93.66
943,93.97
942,94.23
941,94.41
940,94.48
939,94.48
938,94.45
937,94.46
936,94.53
935,94.67
934,94.84
933,95
932,95.12
931,95.18
930,95.18
929,95.13
928,95.03
927,94.88
926,94.66
925,94.37
924,94.04
923,93.72
922,93.52
921,93.51
920,93.71
919,94.06
918,94.47
917,94.84
916,95.15
915,95.37
914,95.52
913,95.63
912,95.7
911,95.74
910,95.75
909,95.74
908,95.73
907,95.71
906,95.69
905,95.68
904,95.7
903,95.73
902,95.78
901,95.83
900,95.87
899,95.89
898,95.89
897,95.87
896,95.83
895,95.77
894,95.67
893,95.52
892,95.35
891,95.17
890,95.04
889,94.98
888,95.01
887,95.12
886,95.25
885,95.37
884,95.45
883,95.46
882,95.42
881,95.31
880,95.16
879,94.97
878,94.76
877,94.57
876,94.46
875,94.45
874,94.52
873,94.64
872,94.74
871,94.81
870,94.87
869,94.97
868,95.14
867,95.36
866,95.58
865,95.76
864,95.88
863,95.97
862,96.03
861,96.07
860,96.11
859,96.14
858,96.17
857,96.21
856,96.25
855,96.29
854,96.31
853,96.3
852,96.28
851,96.25
850,96.21
849,96.18
848,96.16
847,96.15
846,96.14
845,96.11
844,96.06
843,95.98
842,95.85
841,95.68
840,95.46
839,95.23
838,95
837,94.82
836,94.75
835,94.81
834,94.97
833,95.22
832,95.51
831,95.79
830,96.04
829,96.23
828,96.38
827,96.48
826,96.57
825,96.64
824,96.71
823,96.76
822,96.77
821,96.74
820,96.7
819,96.66
818,96.64
817,96.63
816,96.64
815,96.67
814,96.72
813,96.79
812,96.86
811,96.92
810,96.98
809,97.03
808,97.07
807,97.13
806,97.18
805,97.23
804,97.26
803,97.27
802,97.25
801,97.21
800,97.15
799,97.09
798,97.05
797,97.06
796,97.1
795,97.17
794,97.23
793,97.27
792,97.28
791,97.28
790,97.26
789,97.23
788,97.19
787,97.14
786,97.06
785,96.95
784,96.81
783,96.63
782,96.42
781,96.18
780,95.93
779,95.74
778,95.64
777,95.68
776,95.83
775,96.02
774,96.17
773,96.26
772,96.28
771,96.28
770,96.26
769,96.24
768,96.2
767,96.16
766,96.11
765,96.08
764,96.06
763,96.07
762,96.09
761,96.11
760,96.13
759,96.15
758,96.16
757,96.13
756,96.06
755,95.96
754,95.84
753,95.71
752,95.58
751,95.45
750,95.32
749,95.2
748,95.09
747,94.98
746,94.86
745,94.7
744,94.51
743,94.29
742,94.05
741,93.8
740,93.55
739,93.31
738,93.08
737,92.84
736,92.58
735,92.26
734,91.83
733,91.26
732,90.52
731,89.58
730,88.5
729,87.43
728,86.58
727,86.05
726,85.77
725,85.57
724,85.3
723,84.8
722,84.03
721,83.14
720,82.6
719,82.89
718,84.16
717,86.06
716,88.06
715,89.76
714,91.02
713,91.96
712,92.67
711,93.25
710,93.73
709,94.14
708,94.47
707,94.75
706,94.97
705,95.16
704,95.3
703,95.41
702,95.49
701,95.54
700,95.58
699,95.61
698,95.65
697,95.69
696,95.75
695,95.82
694,95.92
693,96.03
692,96.17
691,96.32
690,96.47
689,96.63
688,96.77
687,96.89
686,97
685,97.1
684,97.21
683,97.3
682,97.37
681,97.42
680,97.46
679,97.5
678,97.53
677,97.54
676,97.54
675,97.54
674,97.55
673,97.57
672,97.59
671,97.61
670,97.64
669,97.71
668,97.8
667,97.81
666,97.76
665,97.71
664,97.67
663,97.64
662,97.62
661,97.6
660,97.59
659,97.59
658,97.59
657,97.58
656,97.57
655,97.57
654,97.56
653,97.55
652,97.53
651,97.5
650,97.46
649,97.42
648,97.38
647,97.35
646,97.32
645,97.28
644,97.23
643,97.15
642,97.05
641,96.93
640,96.77
639,96.57
638,96.34
637,96.06
636,95.76
635,95.46
634,95.22
633,95.09
632,95.12
631,95.31
630,95.62
629,95.97
628,96.31
627,96.6
626,96.83
625,97
624,97.13
623,97.22
622,97.28
621,97.33
620,97.37
619,97.39
618,97.4
617,97.38
616,97.32
615,97.2
614,97.02
613,96.8
612,96.57
611,96.4
610,96.31
609,96.31
608,96.41
607,96.56
606,96.73
605,96.89
604,97.01
603,97.09
602,97.14
601,97.18
600,97.21
599,97.23
598,97.23
597,97.2
596,97.16
595,97.11
594,97.09
593,97.08
592,97.06
591,97.02
590,96.96
589,96.89
588,96.83
587,96.77
586,96.7
585,96.61
584,96.51
583,96.4
582,96.31
581,96.2
580,96.09
579,95.98
578,95.88
577,95.83
576,95.8
575,95.81
574,95.87
573,95.99
572,96.15
571,96.33
570,96.49
569,96.64
568,96.78
567,96.91
566,97.02
565,97.11
564,97.19
563,97.28
562,97.37
561,97.44
560,97.5
559,97.54
558,97.57
557,97.6
556,97.63
555,97.65
554,97.66
553,97.65
552,97.63
551,97.61
550,97.6
549,97.6
548,97.6
547,97.6
546,97.59
545,97.57
544,97.56
543,97.55
542,97.53
541,97.54
540,97.57
539,97.6
538,97.63
537,97.64
536,97.65
535,97.63
534,97.58
533,97.53
532,97.48
531,97.43
530,97.36
529,97.29
528,97.21
527,97.12
526,97.04
525,96.98
524,96.94
523,96.92
522,96.88
521,96.84
520,96.8
519,96.78
518,96.77
517,96.77
516,96.77
515,96.76
514,96.73
513,96.72
512,96.73
511,96.76
510,96.77
509,96.77
508,96.76
507,96.72
506,96.67
505,96.63
504,96.63
503,96.63
502,96.57
501,96.42
500,96.2
499,95.94
498,95.66
497,95.39
496,95.14
495,94.93
494,94.76
493,94.6
492,94.41
491,94.15
490,93.8
489,93.42
488,93.09
487,92.8
486,92.53
485,92.27
484,92.09
483,92.03
482,92.09
481,92.24
480,92.45
479,92.7
478,92.94
477,93.13
476,93.27
475,93.34
474,93.3
473,93.18
472,93.06
471,93.05
470,93.16
469,93.32
468,93.48
467,93.57
466,93.59
465,93.56
464,93.55
463,93.65
462,93.83
461,94.03
460,94.18
459,94.26
458,94.27
457,94.3
456,94.36
455,94.45
454,94.55
453,94.63
452,94.67
451,94.66
450,94.61
449,94.53
448,94.43
447,94.32
446,94.23
445,94.2
444,94.25
443,94.35
442,94.49
441,94.64
440,94.75
439,94.77
438,94.73
437,94.7
436,94.73
435,94.76
434,94.72
433,94.69
432,94.73
431,94.85
430,94.98
429,95.09
428,95.21
427,95.31
426,95.37
425,95.4
424,95.48
423,95.59
422,95.64
421,95.64
420,95.64
419,95.63
418,95.46
417,95.19
416,95.01
415,94.98
414,95.05
413,95.2
412,95.42
411,95.7
410,95.92
409,95.98
408,95.91
407,95.82
406,95.77
405,95.76
404,95.82
403,95.97
402,96.13
401,96.2
400,96.17
